,mean_nni,sdnn,rmssd,nni_50,lf,hf,lf_hf_ratio,ratio_sd2_sd1,sd2,sampen
0,0.6929917390761455,0.47230507728947746,0.47327366127547443,0.44628099173553726,0.17655922595098114,0.11702383244455687,0.9171987140178329,0.30981933951088536,0.4692445106765255,0.29513055250867737
1,0.6804970294639257,0.2007048962240338,0.23185327238705505,0.371900826446281,0.029565337515967797,0.02975601964606082,0.5384310307806303,0.193538128186726,0.19857659322474852,0.4801070037606301
2,0.5360150324219635,0.4000470037344106,0.28780540641044333,0.347107438016529,0.07007008405889198,0.07006245019531776,0.5554264548809215,0.6016808113509728,0.399971865284722,0.42343267461360456
3,0.6784512775603002,0.2710296408262661,0.31762375683410987,0.4049586776859504,0.06123572572087629,0.0569360502613673,0.6047359590660575,0.18659164743624923,0.2680269617403679,0.525769890734311
4,0.6902063225285657,0.21192291650439465,0.28380992905656804,0.3553719008264463,0.04725746340700582,0.047012074412080565,0.5541005046686852,0.10265140433416642,0.20847469814989372,0.48637874930998204
5,0.7141504478809282,0.3219265877637373,0.3086068800959096,0.371900826446281,0.050070702484682525,0.04594153913632945,0.610948114169205,0.33564092732879236,0.32019922949676577,0.29620247659117516
6,0.26050036647653774,1.0,0.696626402107618,1.0,0.4826736459471341,0.4817883173456591,0.5655122198814808,0.697447028379532,1.0000000000000002,0.22699714075636798
7,0.32061734435516254,0.7343702295374758,0.7103513405679597,0.7768595041322315,0.4477670826564331,0.5314029225737974,0.451312001235175,0.348070776981769,0.7302259438460678,0.6938892367401053
8,0.31468526546621933,0.6032000786402908,0.5989281641543206,0.7603305785123967,0.35782900528992817,0.3551495771568663,0.569039414300105,0.32205601115352256,0.5994234412549664,0.6767570986834823
9,0.5119962074560689,0.3285745326054093,0.4094925911600233,0.4380165289256198,0.13257655709067787,0.10011091930885666,0.7854243647143009,0.1457374911419922,0.3242001604546181,0.3911175848283325
10,0.44700872680212145,0.5767706957996085,0.5671720762369802,0.487603305785124,0.2792590337598133,0.19408787402890057,0.8738012464779071,0.32932776215235837,0.5732951434526379,0.34826051375258116
11,0.40645965076201507,0.10274012573697738,0.08916821347217295,0.1322314049586777,0.007957136994700225,0.011232719801768704,0.3488887055259189,0.3394849820682898,0.10244324301180165,0.6106133146528164
12,0.3688058757771895,0.22364536170427646,0.16076292046848717,0.2066115702479339,0.026821483969731268,0.032722847177144125,0.42582843109858615,0.5440425335155639,0.2236615671546972,0.365494952402038
13,0.31681584541963526,0.7202661235683209,0.7521187924177951,0.6611570247933884,0.5918346848384529,0.44612929383120226,0.7983477868414376,0.28192119444187036,0.7148066639506124,0.3827507512550249
14,0.3337153366920391,0.7081808355939885,0.6274253451235504,0.5123966942148761,0.3218947196087584,0.27793987920272767,0.6760084478215936,0.4276487993711362,0.7055246869606681,0.2750231477944789
15,0.4214509105860804,0.3682660526799452,0.2815915160663193,0.3223140495867769,0.06626425971234444,0.07077206791315922,0.5114225853629643,0.5364621749859608,0.367878641652335,0.36200410968391905
16,0.29764255271945417,0.20843307775217063,0.2621848539217261,0.2975206611570248,0.07799742811274099,0.09763930711057374,0.4174700888479056,0.14049146293652037,0.2055813187939769,0.6152772514481316
17,0.471258974454424,0.49361243192691373,0.3967147739456111,0.3553719008264463,0.1628584246326986,0.1350967828208672,0.7052805557560667,0.5073197754692977,0.4926617121239577,0.26945615625886
18,0.45293689475994703,0.531709408071731,0.5757247638091743,0.487603305785124,0.31361620958429887,0.21442712666572614,0.8915490216103047,0.2494925404324202,0.5271393657622158,0.29108727454317596
19,0.45171896650279697,0.33728277221648956,0.3773501935351456,0.3553719008264463,0.1424727790631618,0.09288466551055087,0.9306940241638243,0.22027625265845907,0.3340528679333318,0.40923390745635047
20,0.3945110797542335,0.5128448497094006,0.5050952857420786,0.5537190082644629,0.22746669099381447,0.1966981343059939,0.6731545869609049,0.32572788242020057,0.5097388598703948,0.37227373384388374
21,0.41215363991809095,0.4960622608170435,0.5032974887019867,0.38842975206611574,0.23162059153175563,0.1696641075796583,0.820298473400276,0.30070178370470246,0.49269063600217167,0.2999174433594314
22,0.35141092875397306,0.20689904441035578,0.2762454642523044,0.347107438016529,0.08210461376056911,0.07844732548038753,0.5887840835184012,0.10465690147197082,0.20355970911091736,0.6163606399807071
23,0.34624082542309953,0.17876003377332875,0.18971458634412214,0.30578512396694213,0.02925530695896814,0.03335564637141606,0.4638483625318929,0.24609834659632468,0.17733718357068773,0.5580839042301765
24,0.27355259929234643,0.6874410770245193,0.7531438993752105,0.8099173553719009,0.5521483459865145,0.4864086005584653,0.6612149206686639,0.24242125517868762,0.6812904999438267,0.6211039899652481
25,0.38171379487842305,0.49848529534038444,0.4191778323340825,0.42148760330578516,0.1541894227953889,0.11361469562090111,0.8101852927866715,0.4648947725554111,0.4971324838644492,0.3617886319894561
26,0.4169074938983883,0.4751111747586777,0.5047746878750596,0.3801652892561984,0.21594641342556062,0.14532531761119466,0.904157260621787,0.26319004414745006,0.47129038334003637,0.2165564772789982
27,0.36684775401842673,0.4114417699481115,0.4391767962066252,0.487603305785124,0.1914602047075312,0.165542285478706,0.6722141827350742,0.2575323321137074,0.4080786024310939,0.45383929193445527
28,0.2897375155575921,0.6011267451349965,0.7437700838821459,0.8099173553719009,0.6160055672053532,0.4668759609725252,0.7933456160549595,0.15014272929746042,0.5932833406128587,0.6689378251401139
29,0.23850997069324453,0.29713489228922724,0.38308001925517376,0.3223140495867769,0.17011169198652287,0.12325357890998823,0.8274539856057697,0.12373282876018299,0.2927772848844274,0.4902927650359975
30,0.1372746399944147,0.3674531200563846,0.4312860288540081,0.31404958677685957,0.15682523003574197,0.1479626745056383,0.6030774980211383,0.18679505976065003,0.3633570019314193,0.25077522263456553
31,0.21420952386354597,0.32556696728215284,0.4433759084526617,0.39669421487603307,0.22964842446994774,0.1979797756447283,0.6757028775706602,0.0884142334311272,0.3200222744852079,0.39509344458662565
32,0.30124174677305837,0.6633805730656747,0.868228169265384,0.8677685950413223,0.8006072768147685,0.6884899534710927,0.6817706615360064,0.11060979467539023,0.6532337994563945,0.7460470483810541
33,0.42693477456746365,0.5392189865981654,0.46350882326795473,0.5289256198347108,0.21764983169582175,0.1697906903126241,0.7612357605415693,0.4474572623915254,0.5375291891274243,0.4684267134422978
34,0.12876278470190528,0.747165590874097,0.8884590739175361,0.9504132231404959,0.7773688341912589,0.8948677406837793,0.4703921021328503,0.17944111333710633,0.7384994407053778,0.8064912672409233
35,0.6549614203145255,0.6977003245241553,0.6150249453955439,0.5371900826446281,0.2803152970132755,0.18527161522660218,0.9260556089350674,0.432078235886608,0.695154619900367,0.38893689408516485
36,0.4226007060277328,0.5854149598776467,0.6052064424597632,0.7107438016528926,0.29616592911067724,0.2787008539581821,0.6078207824081332,0.2877437508630284,0.5811401222852365,0.6708294048866587
37,0.3830749422969333,0.38319238671695693,0.4934209325387704,0.41322314049586784,0.20798533243624456,0.2023528341639007,0.5818517103436436,0.12361184675281811,0.3775941477079403,0.41046207595919293
38,0.35483259091991615,0.3276271644646887,0.24998379697255618,0.2727272727272727,0.07379317544280439,0.061591548137838584,0.6900517207458987,0.5294654159258982,0.3273057320696364,0.3636982950381399
39,0.3264208900190082,0.2457130728104815,0.25663192165272425,0.2975206611570248,0.06626222487157939,0.05981081942784355,0.6276303880696611,0.26425561323895863,0.2438616956615588,0.5108254258635859
40,0.4464959757749123,0.25067228833107313,0.20884782487716352,0.2396694214876033,0.03347931133976539,0.033640641552941074,0.5418892760783748,0.43485656671389483,0.25007386618026434,0.4746327107723328
41,0.2769920101380985,0.6387881627557495,0.8374019382949788,0.7520661157024794,0.6143467293958866,0.6205941194257933,0.5573077786006757,0.10958745209331189,0.6289725998437667,0.514368777575464
42,0.3368795984742521,0.18452777937777284,0.22131352745557942,0.1487603305785124,0.05291715877421284,0.04753057195682253,0.6274411633915855,0.16962458935038782,0.18233172276227905,0.450083341382884
43,0.4380595335216022,0.28180219022091485,0.18875998274123612,0.19834710743801653,0.02593000617608331,0.02825966816121318,0.4880048424830502,0.6334375841591864,0.2820557753877078,0.36352314919573847
44,0.4109363094484808,0.22075253082890967,0.25585437626052443,0.2892561983471075,0.06605136325655135,0.05802050137764255,0.6480797870680409,0.1922278831342098,0.21838700933476968,0.49622831911230014
45,0.5097512725524065,0.7351120636042376,0.6556027033183818,0.5206611570247934,0.33359306009146084,0.244846071157838,0.8211820346925887,0.42232387520470316,0.7322550263387356,0.31908231291970124
46,0.5853631825651067,0.5985040940852888,0.5513408057086027,0.5867768595041323,0.25507021297055693,0.21401012000549863,0.6988269981933104,0.38729163630073193,0.5957883375873825,0.3447452115555
47,0.3920062565662885,0.5150359354472708,0.566581839389629,0.7355371900826446,0.27315070379756506,0.2157256576012298,0.7517905317661256,0.2368770585884128,0.5103669431206397,0.6637596461004286
48,0.40730471763619547,0.5553573715133441,0.5942608387199458,0.6942148760330579,0.3332522276487212,0.22894378942848578,0.8871091055495998,0.25929101710937275,0.5507738380620812,0.6091900693925394
49,0.418656779900934,0.8124571010239932,0.6218699940794519,0.6859504132231405,0.34973514073847906,0.3104065072660373,0.6539376750118353,0.5805330456402837,0.8114440933065799,0.47590281448339666
50,0.5313815845844958,0.7192068009833681,0.6378103390421305,0.7024793388429753,0.3286440811155421,0.25108244526560825,0.78313748509003,0.42715025331890133,0.7164945868513465,0.5056132563728618
51,0.39466255603112743,0.4805605674125869,0.5334903447077075,0.6198347107438017,0.28178285925271135,0.2675557412219218,0.6009117840162747,0.2293738987536642,0.4760726687106315,0.5178296224894459
52,0.4507484877150294,0.24517577146201824,0.2235239475575801,0.2479338842975207,0.03074950487665468,0.03240163055392874,0.5108029192354558,0.3637373267100642,0.24415019479242805,0.47265309726660243
53,0.28278321308466703,0.6296307107043684,0.8377566839303399,0.7520661157024794,0.6574928084339042,0.6248376683867284,0.6021171354750297,0.09954038455085046,0.6195537207982603,0.513527109147358
54,0.33783174037046715,0.183037615250087,0.2192993358880302,0.14049586776859505,0.06901786034502162,0.06252929562243012,0.6254801395418182,0.17021551796924816,0.18086595416507895,0.4411841527009921
55,0.4353466042640237,0.2902009348094715,0.21209022710464204,0.21487603305785125,0.045478076490075015,0.038657480931817166,0.6652689378886226,0.5575199684241507,0.290117146751473,0.3672064961173842
56,0.5041897692658182,0.6572293049464637,0.5127074533166998,0.47107438016528924,0.2461440965340941,0.19233243101452738,0.7606952415953334,0.551239209246883,0.656244651136178,0.29528180907597634
57,0.706362551990819,0.7414136862199049,0.7319694863109771,0.578512396694215,0.3353283724832887,0.22920530273989273,0.8923886645065074,0.3300941548495766,0.7368642461962114,0.357563564797749
58,0.7548256052431457,0.49167094405484724,0.4533617943747593,0.38842975206611574,0.1643053909297517,0.10863828372526133,0.9185598729783931,0.38106262267569835,0.48943955954398,0.24428916303630507
59,0.6538587552692776,0.5730113019890043,0.6634053925684211,0.5206611570247934,0.36098684971091766,0.2780546295788925,0.7760873138633005,0.198689118644082,0.5668874611389709,0.3036390763657182
60,0.6358055148714812,0.8164664497122617,0.8045830337626084,0.5371900826446281,0.4929373817526908,0.3311865672887092,0.9129641373014902,0.33308203110726586,0.8114890989047782,0.35441622063375156
61,0.624936966489041,0.31317284373771975,0.33237934186206053,0.3553719008264463,0.0781825295049011,0.0651293733896628,0.6926203531485515,0.2576034966408447,0.3106679119877384,0.41410262027967515
62,0.8904335233205187,0.25874309880396,0.1612666442014603,0.17355371900826447,0.016624609520281403,0.010939442250340664,0.8023369111997409,0.6875936991762188,0.2592081961338472,0.2510773108525205
63,0.8718133136398716,0.05585675126450156,0.07585853140471964,0.10743801652892562,0.00404593019816384,0.004634208050325871,0.4140649660732373,0.11499826742691666,0.05491645107789729,0.43163014584258474
64,0.8125710971745381,0.1909927119392205,0.08653759629545617,0.10743801652892562,0.005161394700406458,0.006787566649555802,0.37168277620779244,0.9016168670388724,0.19192877537677316,0.2977440853591564
65,0.7830176050681039,0.0805239987465535,0.08159397035927234,0.12396694214876033,0.004252180843679903,0.005273393719495357,0.3885868107730741,0.24565819704423864,0.07999393965519248,0.31602331751969737
66,0.8371464418639212,0.18775272896013734,0.17917581197348242,0.18181818181818182,0.016751861106505648,0.01821587127462145,0.4807375397069954,0.3180583339518185,0.18677954955424547,0.3587895101524363
67,0.7718013256927161,0.1796663207817737,0.1316335470807266,0.19008264462809918,0.01623281633614354,0.015538516291364119,0.5518133783223721,0.5036695393580677,0.17965006772611963,0.2897085571926665
68,0.7851927759746351,0.3654317308899291,0.3906234961899568,0.2644628099173554,0.09482340888567611,0.0651950747179591,0.867592365717179,0.25475085653916774,0.3624312796175012,0.1418005217587153
69,0.7966523461260968,0.058406733515313426,0.08233241817501476,0.18181818181818182,0.004910087243287876,0.0054718088830971335,0.43093541371212785,0.09921461294230449,0.057325523714427215,0.3131927548108624
70,0.7741558646385132,0.07957734486538531,0.07884638448273017,0.17355371900826447,0.004732003510501799,0.005356714744963962,0.4238011601157855,0.25576974904255256,0.0791017815496015,0.3883205062931928
71,0.8804336291901151,0.6654713625724755,0.3563829368706547,0.2644628099173554,0.09316910235594444,0.06465909787026677,0.8580694730129673,1.0,0.667260783271995,0.0834605971682765
72,0.8013556940920663,0.2397638573771938,0.24082120450418154,0.2231404958677686,0.03327725736987317,0.02716370070424297,0.6861128537349687,0.2913634477152879,0.2382090696921484,0.20380294536076946
73,0.8588104227917916,0.29787471414269806,0.28725571169198505,0.30578512396694213,0.05413951028238176,0.039160852697954496,0.8032323986157326,0.32856276722561617,0.29623813403053273,0.32500969160278925
74,0.8561114620284407,0.14886305804759836,0.17614963051342603,0.23140495867768596,0.015876733383731235,0.017958742175474846,0.45859966916496675,0.1766706394268336,0.1471631534233135,0.3537360161571793
75,0.8498617823779775,0.10248257571528366,0.08886886086777616,0.15702479338842976,0.005138483612264683,0.006016855728208769,0.4140829129236767,0.3397060534874349,0.1021882084383496,0.32765918926926096
76,0.8696907268807117,0.41917673177686143,0.2541316616726503,0.2231404958677686,0.052949246379262044,0.03451882812484814,0.8985793892470667,0.7857272838518707,0.41993544274109873,0.20655256599686886
77,0.946331908455575,0.2656516024604274,0.18639300370575423,0.2066115702479339,0.0203544778547146,0.01289471934703764,0.8532646858146874,0.5844231843298153,0.26573786987003023,0.22211636386003766
78,0.8742914333273581,0.44250928005325785,0.24605594776199996,0.21487603305785125,0.036292644685829725,0.028557747141823495,0.7177173985332321,0.8926036055818072,0.443652884115085,0.10439366091561939
79,1.0,0.1877183474137632,0.2096489139106284,0.25619834710743805,0.026086510632263308,0.018596546425893017,0.7790491561316726,0.21423028623704488,0.1859337040948636,0.30478807275162956
80,0.24091200848043393,0.8184026660290941,1.0,0.9338842975206612,1.0,0.8956096982190072,0.6488278140499839,0.1592600666147671,0.8081079592966355,0.829574056105077
81,0.3892268068851925,0.5807983694921801,0.7132760137385222,0.6776859504132232,0.46203950924055903,0.3487109440389335,0.7962630147230471,0.1554846960980435,0.5733831838778307,0.420851006918768
82,0.32374549750764237,0.47796566971796495,0.4552804949424156,0.5041322314049588,0.20236775280307417,0.20105828704413536,0.5666626882749247,0.3523287573414614,0.47545229007173473,0.3672922162487021
83,0.6321688521871536,0.4765684546053658,0.49794404146228544,0.5289256198347108,0.2124082404773813,0.1705788238747246,0.735280774812633,0.2762929257778688,0.4729554629333039,0.4480256853282849
84,0.46670451177905337,0.68693812311555,0.5898253425152005,0.578512396694215,0.27051271552024586,0.19813366943459565,0.82170704813381,0.4567930314532149,0.6847781955481284,0.3584203753077141
85,0.474504697674478,0.669717478013462,0.7242321261851256,0.6942148760330579,0.43621528270761284,0.3697138166287001,0.6925592050250245,0.25263954992188786,0.6639831011794606,0.4872616138538136
86,0.45800080589961256,0.5433150775204684,0.5719275525752863,0.5371900826446281,0.310657323684351,0.23291062700523546,0.800433489882103,0.27209996760961097,0.5390815763696765,0.44088172368254996
87,0.4538808931707299,0.6760793637219309,0.739037945770696,0.6198347107438017,0.47424424540563415,0.4210908288688484,0.6544770679627959,0.24408191826988457,0.6700757308848416,0.41145846543562425
88,0.45852638812139124,0.6492278792723377,0.6361042553135062,0.6198347107438017,0.35034629071173423,0.2772687907285952,0.7512911937197332,0.3346218735466958,0.6453690706346951,0.5051471471795398
89,0.4293207654336417,0.8369630004042552,0.7847420039333006,0.6198347107438017,0.5397022103069635,0.44205760981837255,0.7224911776958737,0.37851411568353444,0.8328255724771813,0.44353259501108844
90,0.9883519895667217,0.19301978413920862,0.17999990438568197,0.18181818181818182,0.019647955407022834,0.017206892083638268,0.6148036530617503,0.3353382290324832,0.19212274290122822,0.1985416733078407
91,0.5828039499409563,0.7426114655741957,0.7783051713010232,0.628099173553719,0.4405375683675138,0.3294107153211457,0.8048555883927623,0.2791007651886698,0.7369056646389521,0.5095982710216728
92,0.6285688500256799,0.7344610989588675,0.6189630869524569,0.5371900826446281,0.3059294675898674,0.2188249307280932,0.8457722522350987,0.4770906505613133,0.7323960616009371,0.31306773988342507
93,0.27921265550147356,0.6195178639391941,0.7124615636995567,0.7355371900826446,0.5138703611754517,0.42925000520650686,0.7053737792326624,0.2041347712781605,0.6130355525597416,0.6007651095683869
94,0.2922027388014554,0.3480354148632792,0.4000011757631108,0.3801652892561984,0.1623393359792756,0.14097691861255313,0.6675233583019209,0.2013415591366292,0.344401618736651,0.35319177459053175
95,0.5126515712737829,0.6126361345994313,0.6642641686294289,0.578512396694215,0.4128749636746291,0.32131041067839755,0.7672709640248498,0.24976235453572293,0.6073443848898664,0.3617586197925903
96,0.4899435869615638,0.3568811254978475,0.34244414902775444,0.371900826446281,0.11855853549601741,0.09194902423690164,0.7598000591701248,0.33813088103456546,0.3549541894132408,0.42188887125359475
97,0.5070052108418999,0.29428776404932894,0.3091293094792143,0.41322314049586784,0.057403184644129066,0.05497337921799759,0.5828272740798977,0.2639727974137742,0.2920200430716673,0.48636118737257894
98,0.5885205894589551,0.41085963373801626,0.39605718132335244,0.371900826446281,0.12985301187456352,0.09402244455854705,0.824186494311687,0.33835509203920966,0.40859027395188563,0.3763708156810922
99,0.5648293743099153,0.26384082424107824,0.2988558330669527,0.2975206611570248,0.07042728412605317,0.05016856203325982,0.8257325465600643,0.2091315518480239,0.2612120178233734,0.4073666564273879
100,0.3540766067227725,0.7431541488876502,0.9397037229893284,0.9421487603305786,0.7301122206493937,0.7495900832069798,0.5460596271771148,0.13446217160425677,0.732833046946747,0.8300220460821385
101,0.45082662633293946,0.7513015791692884,0.8316910438472631,0.4628099173553719,0.6201409412777789,0.5030506980021789,0.731359955520865,0.23475428843528223,0.7443437997475879,0.1312898705547834
102,0.630934239329034,0.24516449521233935,0.2902403449262039,0.31404958677685957,0.06919405913299694,0.05848782921264699,0.6787907338078624,0.17908409813489812,0.24235936043331335,0.4442962047048704
103,0.5663460340879893,0.47043282890568405,0.3878099657357114,0.4628099173553719,0.11901135714539682,0.1120797499429725,0.6025896898624925,0.48079026764744803,0.46932712188093495,0.4366211043316345
104,0.6736036092437765,0.374162801610457,0.3413058978215546,0.347107438016529,0.08691753535032276,0.05972568637797779,0.8658523356606606,0.3811888080091159,0.37256401157115326,0.3062805862958622
105,0.5863978246167352,0.23231014853415,0.2697626735275777,0.3223140495867769,0.06170965150492567,0.054271937043722976,0.645992133815481,0.19142081310275394,0.22980622886114993,0.5189864940964782
106,0.5988359618947043,0.294735224331139,0.3527619659781082,0.3305785123966942,0.09510385329109869,0.06400366691732247,0.8887671815071579,0.17250249282041086,0.29124866361756196,0.38829692318417086
107,0.44777504450400896,0.4894992407025338,0.5276832634102078,0.4049586776859504,0.24647315784483492,0.1763515479421235,0.8436731718619722,0.2520695531691497,0.4853561199021629,0.31800428827655847
108,0.3946238393177348,0.5079537156885852,0.45128297333177647,0.5619834710743802,0.1959124328592109,0.15457768966673355,0.7502072890318265,0.4151002239594239,0.5060400721076265,0.5261522551581516
109,0.4070607990793458,0.17789022103584556,0.2618990971506339,0.3801652892561984,0.06332593835736877,0.06076349448914811,0.5827810686507808,0.05153591714802863,0.17419366731925556,0.5490000750747059
110,0.5148317621676615,0.4544530219321663,0.382127692224346,0.38842975206611574,0.12677218677066854,0.09662859348179338,0.7762815452682652,0.4607770831280744,0.45322711964941653,0.2977630924456697
111,0.6074752276934536,0.5435406278824498,0.4906122744906376,0.487603305785124,0.17600265549764582,0.13719666001367148,0.760028373519356,0.4029495669755925,0.5413125063383456,0.3916187098713395
112,0.6849972556811443,0.6278806484379449,0.5424040492810548,0.4545454545454546,0.23067749378573588,0.15890672857096733,0.880930083813985,0.44821558842703757,0.6258429005553126,0.3047098676460942
113,0.5805719310993906,0.486546159611587,0.39734558589976604,0.3801652892561984,0.09441903741136973,0.07554254892251332,0.7292757346684732,0.49153047174265385,0.4854807748488218,0.28291397216877756
114,0.7709005110000031,0.4509986290078569,0.4806521253116647,0.371900826446281,0.16391026053785232,0.1062069554838236,0.9398465219245687,0.2599550762960735,0.4473305623826699,0.25784196560752715
115,0.4915851982305772,0.6920826664878179,0.7682106475032111,0.6694214876033058,0.46085969711364244,0.3616122513475973,0.760225297009632,0.23209062184189455,0.6856165463352801,0.529381121562903
116,0.6865269771152758,0.7996035965171967,0.6680791831381866,0.5867768595041323,0.31046951178077936,0.2781922595490998,0.6459272285242231,0.48838886699264417,0.7974705861306064,0.4254318815737397
117,0.5532028301937457,0.770427073968854,0.6933681890850801,0.5041322314049588,0.3967709227619826,0.29562773626203803,0.8077476704508163,0.41494174168977227,0.7672894669895557,0.25384745122147523
118,0.5599787133332352,0.6524249159696058,0.6126624639907136,0.47107438016528924,0.2919791292580655,0.2203354442573129,0.7939097448184573,0.3720881594994583,0.6491867143031951,0.23406311674288435
119,0.47169449870794344,0.4524162094584383,0.3870255958535859,0.4380165289256198,0.11471120621077793,0.08932135430817714,0.7557866760190063,0.444867461589489,0.45105216757067357,0.30971187087697427
120,0.6725946708443229,0.5812926350495446,0.4534635673138677,0.347107438016529,0.14469902016594025,0.10074071506178314,0.863978676722816,0.5450936322078781,0.5804334644154802,0.23736095540591054
121,0.6055086269297192,0.49340116295788417,0.5125263278562873,0.44628099173553726,0.18578079118282875,0.12786546299130436,0.8791974807204951,0.28145509992200246,0.4897382195903829,0.33836721122009383
122,0.3152840562195862,0.5506787338418494,0.6533422614128928,0.6611570247933884,0.41459221075938785,0.38768000602828245,0.6135572552657017,0.1804389644417559,0.5443346826620722,0.5109675441289209
123,0.3091921037995351,0.5096237750273802,0.6006145087314326,0.6942148760330579,0.38695133316990943,0.30850172100397427,0.7451529674097048,0.1852512490894186,0.5038743190623227,0.6202331561321061
124,0.49994085764537943,0.7383331702249052,0.6834594467241071,0.6528925619834711,0.3522913405520096,0.2941946815980906,0.7043383810009217,0.38771493312110705,0.7348926010497369,0.4176257191916928
125,0.47542513023197563,0.5057847668719637,0.6053657451744042,0.5619834710743802,0.3219397232346077,0.2331474829931974,0.8339629041494298,0.1738544424336922,0.49980140419669017,0.37738449493325
126,0.12405236206411518,0.7409638574351216,0.7928887618295791,0.9256198347107438,0.6799240568159776,0.6221346792123411,0.6313128451884532,0.2621082042676497,0.734844776832688,0.7742096879440385
127,0.343220521417706,0.6420199076083342,0.5710079389898973,0.5867768595041323,0.2192063725346503,0.23181793494593506,0.5237501549499665,0.42153125371528466,0.6395717597921073,0.16837009404556494
128,0.6073637809132635,0.6392352031416528,0.5749787515671934,0.5371900826446281,0.2604651894760022,0.2098612938302558,0.7337805958356209,0.41090953608811764,0.6366518119367978,0.3730574181051616
129,0.6121544000244767,0.5854295012667035,0.6247118431992302,0.4380165289256198,0.23750864319884504,0.16502862613888933,0.8725069810258391,0.2620450735251454,0.5806428344753944,0.1531773241112019
130,0.5319349434770952,0.6050117080878404,0.5269350821861513,0.4628099173553719,0.22876372147949492,0.16817930490688945,0.8167195172919255,0.43928085908668324,0.6029565421373034,0.35425575586420477
131,0.4703664478826586,0.4503706003633724,0.37520789247615366,0.38842975206611574,0.11921606654868429,0.08963358520755385,0.7877773551473273,0.46890106501322193,0.4492319167165665,0.3276419202821179
132,0.4987067364707731,0.3220467811305702,0.2634579954056758,0.30578512396694213,0.06147731880481352,0.06104408936539972,0.5587611974691394,0.4668158688649937,0.32136281066185485,0.4164147825955138
133,0.6110663810724102,0.5037094285565646,0.4668987081309336,0.5041322314049588,0.16468808570234936,0.13655478365463844,0.7057463977136361,0.3772053076376174,0.5013651723779443,0.39278211418306985
134,0.7901865010513682,0.5740441636992535,0.39248046327173786,0.33884297520661155,0.11434546365205496,0.07528438246269473,0.9156248958679657,0.6842941906625002,0.5742470422029778,0.18949548409153025
135,0.6492287613166541,0.5959381524122079,0.49889916248535426,0.4297520661157025,0.19859816830255028,0.14253385974831295,0.8384729336639926,0.4763130175200794,0.5943507246562117,0.3808956759524934
136,0.7480725084662416,0.665457929972533,0.6298552672420692,0.49586776859504134,0.28069588842175436,0.17359930500387416,0.9990959013092747,0.3654378005860689,0.6620365279256064,0.285677645011402
137,0.5390424500015316,0.5375892735799489,0.5813020002080914,0.6528925619834711,0.2770587442464332,0.21819110207020753,0.7544266329118636,0.25069711773968106,0.5329904753308964,0.44457346922408514
138,0.5519234290651873,0.451443290133429,0.3636229377277842,0.3801652892561984,0.11622952683816226,0.09069382567563085,0.7541312995704048,0.500529684807737,0.45056585236806523,0.26960276054273924
139,0.7181361330389,0.5425468467203232,0.49231669832515,0.41322314049586784,0.163460495248626,0.10751409068479464,0.9239648445212291,0.3981371884593381,0.5402632529465933,0.22483732380638263
140,0.5301875303667298,0.25446561572416865,0.19605130822643468,0.33884297520661155,0.024078135848515807,0.03081383038300203,0.40025077898707406,0.4999944837741046,0.2542012874303272,0.30888305959072737
141,0.49682285575595797,0.22318180402628396,0.2689004868807671,0.347107438016529,0.06686100934784105,0.05701815534430969,0.6711904328137489,0.16736857352843437,0.22048886143280366,0.5145728239498392
142,0.49638500323353596,0.5025858291287887,0.330614756343059,0.4297520661157025,0.09353618882213077,0.08025044645476989,0.6716476247205949,0.7161191266549323,0.5030177690618035,0.13953681496570794
143,0.4142244486740394,0.5764881696902036,0.7105701557094746,0.71900826446281,0.384156002635443,0.3529437145334774,0.6269417074078013,0.1528698240273375,0.5690490652091229,0.5880490962324962
144,0.3258367538100022,0.5493183064982912,0.6102275321690451,0.5537190082644629,0.3879551538541599,0.2404546485205422,0.9999999999999999,0.22990152243488093,0.5441750870092779,0.43268190397396433
145,0.5940810783856603,0.48101377395650335,0.4162087621842055,0.42148760330578516,0.12375404344749986,0.08825964619986833,0.8378141991042708,0.4370096232282912,0.47945439690508607,0.39902571838812995
146,0.40653366816337533,0.42531299324673794,0.4392581910942239,0.5041322314049588,0.18916217532225374,0.15188283546583914,0.7345194602147003,0.28363040217293134,0.42222418342969287,0.5282157250366888
147,0.45962846095686505,0.6105900816639249,0.5299573273281877,0.5619834710743802,0.19285598531635734,0.22700977887740795,0.45526547405149365,0.4430685326835473,0.6085586445029696,0.46494500034751673
148,0.630202655619208,0.5189853596714291,0.5431843862930147,0.15702479338842976,0.22053177916062855,0.17191550903590755,0.7619876596499657,0.27458087249251684,0.5149972178590879,0.40703536900558934
149,0.3326749201780457,0.5915419457723298,0.5796884111058209,0.5619834710743802,0.3200337423729342,0.2575136674262993,0.7360928561513613,0.3327782013049533,0.5880264332312707,0.5364208862221904
150,0.35057002116543967,0.7063527941466606,0.7675431084985197,0.71900826446281,0.5553996459177306,0.4095621708807855,0.8191837682711361,0.24918725133175512,0.7002042407791192,0.5354178319539675
151,0.39209032763083984,0.7053486789683957,0.7146063233237198,0.6694214876033058,0.4529930515302642,0.36483973777947293,0.736741789503304,0.3071141680849636,0.7005661046786993,0.4551572496526263
152,0.27630418341814034,0.655923203658233,0.7737956472277315,0.834710743801653,0.533747051367396,0.4645162418341107,0.6710751853645575,0.18507766335702536,0.6484956184461292,0.6330595415997591
153,0.4210743409785269,0.49861171651227665,0.5930768375190986,0.4297520661157025,0.3452088805899444,0.2646140651210072,0.780337025414786,0.17802167670439895,0.49281555839477775,0.47282072109475803
154,0.3946662465035933,0.6459342859473035,0.6929497417756835,0.6776859504132232,0.4557985562717419,0.36361489558572074,0.745250847015539,0.25877689128255443,0.6405539111562456,0.510385816230685
155,0.3324009365399212,0.40798061253224577,0.4238306052303744,0.4628099173553719,0.17954114886847075,0.1341928261691899,0.798678686529863,0.27834506819189386,0.4049542298957696,0.38095457522438636
156,0.3159681513246877,0.389748770390839,0.5166104953546955,0.5123966942148761,0.23001200457856125,0.19341307588959927,0.6963733512963084,0.10438462440880669,0.38357712773092206,0.4308907160920863
157,0.4092229711532491,0.47643350273211993,0.40049638371663115,0.5123966942148761,0.1611569462193309,0.1370873090967445,0.6842870036016073,0.4631950510464311,0.47514688955638207,0.4593355825630471
158,0.43385510162490126,0.48392792127558726,0.41512330243117923,0.4545454545454546,0.1561091888758621,0.12388931398847244,0.7429284345906453,0.445227478885728,0.4824389204217935,0.3472120331946851
159,0.34424118450280705,0.4310102556786479,0.45855224236167946,0.371900826446281,0.14860077844448732,0.12434253280605664,0.6971988849545618,0.26070643619108347,0.42752691098285706,0.30798659103577974
160,0.3665970136449437,0.42543883323678827,0.44690853041148015,0.41322314049586784,0.15305314046523172,0.12706780448755933,0.7040279139571903,0.2703721326009837,0.4221524374811072,0.41328371315382817
161,0.34354582190524696,0.16656611435441993,0.1565395710743736,0.2644628099173554,0.02213628724670707,0.02441023365915209,0.4786202176055476,0.3226762550858472,0.16576691805826999,0.6584841772543611
162,0.4012767773501025,0.41298995463972366,0.4471572538072446,0.47107438016528924,0.1811955228233327,0.14162877062080304,0.7578784520068127,0.2467323885177517,0.4094436521954636,0.45562242969247857
163,0.4583670062581522,0.5190533202242813,0.5222551494531075,0.4380165289256198,0.21914350132069849,0.16945756810144602,0.7692570759342269,0.3082333501198312,0.5156335062085073,0.36859079534952266
164,0.3448054354020105,0.4707900473655815,0.5938936903672645,0.6033057851239669,0.34894207928071236,0.2541526444640844,0.8289086728078819,0.13684222444723504,0.46429654909330564,0.5842426257359655
165,0.22859994344327506,0.5231737192592859,0.622009371293884,0.7107438016528926,0.4265301245251222,0.36806846780378466,0.67747591106347,0.17876967577816716,0.517107921548686,0.5704478027656601
166,0.24666838505425437,0.6791926846517271,0.8149634545683532,0.7107438016528926,0.6547156747067712,0.6281133688350174,0.5950016689473837,0.17251795977452056,0.6710968726994189,0.3667486627742623
167,0.3659452503021259,0.706681694062705,0.8109739140811394,0.8099173553719009,0.5629036785462347,0.41344352715940264,0.8231048347747176,0.206278258761182,0.6993349982341546,0.6264767788139091
168,0.36496133690375365,0.6857198267068269,0.7290281635718199,0.6694214876033058,0.44075948646272683,0.32100497085313257,0.8302809370508945,0.26662967130262716,0.6801823026400403,0.5419213075614276
169,0.22394149856958867,0.6307391499264793,0.7599834234885784,0.5371900826446281,0.48856455440306834,0.4827022109033899,0.5729128883201646,0.16936015987161457,0.6231270798138723,0.17481735794591555
170,0.3451452924534171,0.39704277975821084,0.43941665684314934,0.47107438016528924,0.1943847386474511,0.1755247719101357,0.6377373194095599,0.22985083433770437,0.3933727499151301,0.40349857492323915
171,0.29036611367090015,0.4093599835651131,0.3736517406976941,0.4628099173553719,0.14302337263597986,0.1321467530585904,0.6181886730922311,0.3839195509521348,0.40760023452402605,0.4145519867104296
172,0.35046545777890414,0.2577130118185911,0.28377818292729634,0.2727272727272727,0.07511738975931839,0.06548351059365473,0.6559980111408312,0.2282429763650905,0.25537366919933674,0.27712955805166806
173,0.28485377796425904,0.35552727770089415,0.47887724114506447,0.3305785123966942,0.2747559059109906,0.19900923999271977,0.832631094761824,0.09466158105725153,0.34964782976322734,0.26223073112510165
174,0.3912284021517045,0.47747717478612994,0.4295338137267348,0.39669421487603307,0.17986911167457953,0.12865919332788792,0.8405703079846691,0.40183374130381355,0.47556049406696754,0.23229945241484343
175,0.3184672430054347,0.08933162200916733,0.12896213327877915,0.14049586776859505,0.018593431508164397,0.019221405033080053,0.5114936492913558,0.07801686333983004,0.08757260213262054,0.6332863252504277
176,0.38836410040079183,0.2911685886725465,0.3038575501169964,0.3305785123966942,0.09344314697390758,0.07597849133639654,0.7154926220790192,0.2685305776144544,0.288977894373206,0.45945443561975086
177,0.3023520318484547,0.28671478627542824,0.323584549035754,0.2975206611570248,0.12556981775657663,0.12940225345183698,0.5391311414291736,0.21260901709351343,0.28389275552787613,0.23714966820319097
178,0.059173956438006936,0.33308987190170286,0.4771108788259828,0.28099173553719015,0.2916724640282334,0.3704402434010551,0.41141798714703026,0.057137809192627675,0.32661457064359073,0.23711803026006592
179,0.04554140043723298,0.0,0.0,0.0,0.0,0.0,0.327115176259971,0.1538193864436923,0.0,1.0
180,0.12089911077418702,0.44681905324305804,0.5276884588537796,0.347107438016529,0.28104083923337564,0.2910950078817827,0.5384914846578621,0.18316047563715665,0.44174292410050847,0.0
181,0.19678483592128582,0.6409473832077075,0.7269697621193253,0.7520661157024794,0.5398522149138218,0.5283727887089106,0.5799332380877584,0.21484103783081687,0.634527034271956,0.5651260457941658
182,0.15714128780757597,0.6931363519239387,0.8789756618164208,0.9834710743801653,0.6695600626532783,0.9999999999999999,0.3270337033898064,0.13251599393007896,0.6834308883804415,0.6991497735781834
183,0.14628268765526098,0.4185299697627499,0.45289055166799386,0.3223140495867769,0.26192179764827395,0.20104335067602172,0.7773791745320244,0.24733495703682185,0.41494306770174055,0.23129429068280913
184,0.03350553956827973,0.26230859730390405,0.2641808184709486,0.1652892561983471,0.08257138061877173,0.1141529003097435,0.364831627251087,0.29196743618267196,0.26058650791536153,0.2304725126767945
185,0.0,0.29362976693135395,0.4657579735823699,0.38842975206611574,0.2917866205136794,0.3764247817435136,0.4026790999358324,0.0,0.2862727422095108,0.3445919750324947
186,0.11476303705878887,0.35646040878402246,0.3998795032101714,0.38842975206611574,0.19432089958031737,0.22823015045277673,0.4566115872133295,0.21890448373724336,0.353016847002136,0.4004923634923995
187,0.05483698729436792,0.3699571107593706,0.38733448885215843,0.44628099173553726,0.20619684680459976,0.27154491289513183,0.3911480278580888,0.2707007904810005,0.3671362086831243,0.27191159028567635
188,0.09104140181844489,0.7593477309941494,0.9059426196736067,0.7272727272727273,0.9308481891393281,0.7257067538181979,0.7680507690756558,0.17695105972429603,0.7504506523992214,0.35450247309636207
189,0.11745886753869916,0.15237608228071975,0.20070139598914544,0.18181818181818182,0.0344221480361208,0.0908230792519663,0.12425522529812646,0.11545554321681573,0.15000659091427954,0.4543150452338518
190,0.02360864532457485,0.09926813211671426,0.06793138472889433,0.10743801652892562,0.007162840946324336,0.012793501922002928,0.26365363939727293,0.46568406412644814,0.09940223771147592,0.6858110194518198
191,0.031143637190071405,0.10583608741726125,0.11935742594638142,0.10743801652892562,0.016551264554862586,0.0829823753518968,0.0,0.1995092889092046,0.1047988050298921,0.5682839502080809
192,0.4015468143904244,0.4420565569744175,0.4406176234790028,0.4628099173553719,0.17865167195891357,0.13494790483256744,0.7889630936582028,0.30966710638161266,0.4392308345441514,0.38363523632356544
193,0.5637817961884681,0.4528081740123485,0.36988592227235834,0.36363636363636365,0.08766285852349379,0.07256898863149078,0.6943040706195673,0.4864616324334914,0.4518210153807628,0.3102943091722008
194,0.5598810522872437,0.4791301164890559,0.497708104690158,0.44628099173553726,0.1847383461860058,0.1289225633434657,0.8657453612037888,0.28093551292427477,0.47557352209410775,0.3454821999161599
195,0.4884070306042292,0.6089673186770147,0.625068649514868,0.5950413223140496,0.3327747576748911,0.26425480851539895,0.7520144063247125,0.28457262038424136,0.6043062276129734,0.5175056091504472
196,0.5755824662419888,0.5120376267434398,0.4499445233942043,0.4545454545454546,0.1623974801321188,0.12116119687436487,0.8133610914648725,0.42815933710832543,0.5102141080247888,0.33305086329819455
197,0.32671330011490407,0.6901530890134763,0.7695516372762874,0.7520661157024794,0.548444093757054,0.4272152935155262,0.7716062379453454,0.22859306424156067,0.6835936669766242,0.5667836806479959
198,0.40828417788988336,0.7031894940943401,0.7233309982116551,0.6694214876033058,0.45427343191420055,0.3643144299754038,0.7405639805551874,0.29490328659489917,0.6981329047781125,0.4672379756248919
199,0.3913527474810785,0.4125436965227184,0.4448569184525625,0.47107438016528924,0.18415427679766036,0.1485217467426333,0.7331860650409967,0.2498454295644731,0.4090501819972589,0.4551084472829071
200,0.5285934417484599,0.25297094602498926,0.19953187705852798,0.33884297520661155,0.026122204687722774,0.0320658137054104,0.41319566226382176,0.4841023708178125,0.2525905840380762,0.31871045086861605
201,0.5458935154410793,0.25251965261072007,0.29051501192495166,0.30578512396694213,0.0694342840824745,0.052075775268180156,0.7827015589809844,0.19750299211261335,0.2498729879994377,0.43721733693918696
202,0.3539537045448651,0.40954814603934897,0.43113002748346463,0.4628099173553719,0.18005883892674282,0.13651969701066463,0.7859113942706503,0.268452764257498,0.406359069040575,0.4043197919077347
203,0.3768167411939993,0.17885533991044336,0.18092907592769608,0.28099173553719015,0.03184441234448274,0.031488238127959194,0.5204202702726027,0.28896455537320354,0.1776450795518637,0.6272462096329801
204,0.42943785245302224,0.505238356064554,0.4783842451179098,0.5289256198347108,0.19075562169212565,0.18429131220119663,0.6140540731930784,0.35240928107760006,0.5026056787023828,0.5009218180040957
205,0.7014524451366215,0.6622276270390277,0.6255939380694342,0.487603305785124,0.2834925006224929,0.18518310961708073,0.9482394038729877,0.3670861279723481,0.6588516321961805,0.27288470532455467
206,0.5081777080266561,0.46094108967272096,0.3957250428732386,0.4297520661157025,0.1174068589907734,0.08900486111707069,0.780238926441363,0.4425250547465238,0.45951881873989575,0.33633616091261065
207,0.6515559805483229,0.6118222244895584,0.5394309029138528,0.44628099173553726,0.22897555233535472,0.16046359720840347,0.8644517549460388,0.4275599850516809,0.6095805406631241,0.31413605715305193
208,0.5248559811130573,0.7343851647875929,0.7277990460656697,0.578512396694215,0.4262546071625569,0.3259835456496952,0.7858852667041324,0.3308221003887091,0.7297162938246138,0.3806051846975895
209,0.3644957833922078,0.4779727693808721,0.5936828034177849,0.5537190082644629,0.3479782791477208,0.25685347007118575,0.8163689276470217,0.14747352614037135,0.4716593034587566,0.5554768258397692
210,0.42053690621397655,0.47987581012068636,0.4072147635443682,0.4793388429752067,0.1588384298063052,0.1310252569426024,0.7112219592621277,0.45494225517645637,0.4784962370181062,0.40783542678919593
211,0.37178114841199794,0.4504893183865559,0.4373985908418492,0.41322314049586784,0.1534428160609803,0.12245420796039996,0.7404334258098343,0.33708154416100067,0.44786602420883903,0.3956240383544559
212,0.5754885051989933,0.6481077394585631,0.6003280606382063,0.487603305785124,0.28166417832833757,0.21690710910046349,0.774228637806973,0.3847949361610177,0.6450838663662986,0.27955788534302406
213,0.4202301620766993,0.5082091898446545,0.6075566827360905,0.4628099173553719,0.3500087135298257,0.2754997875711244,0.7614326273097511,0.17492196908447855,0.5022105554552204,0.4870214353336433
214,0.3840117038870985,0.4122135886598502,0.44315530506139333,0.4793388429752067,0.1863429382785369,0.153620646974742,0.7149205124834337,0.2521482209038225,0.40875912262762026,0.45472824213187457
215,0.4239109676713049,0.7011059174534328,0.7317501609310878,0.6694214876033058,0.45550897718477984,0.3638075168884346,0.7442523298431434,0.2831199938610094,0.6957849083020176,0.47889567050015014
216,0.5679842489764917,0.6617355468533336,0.6161681661403023,0.47107438016528924,0.29314884436848365,0.22399550867211557,0.7845482626979859,0.3794454272433778,0.6585672603949139,0.24616924465071574
217,0.34379257721882195,0.5548378221533404,0.6306119808351311,0.5867768595041323,0.38718336216424626,0.2633066281751577,0.9242137852640521,0.21425265212985733,0.5492281971816643,0.4642445086103869
218,0.5000378401892915,0.4910504749043555,0.46223632211571497,0.47107438016528924,0.19279762051977056,0.14828091577970198,0.7745700576033967,0.3578660539025872,0.48854010894741884,0.47145710238198546
219,0.39335709857315404,0.6761302018531188,0.703956171059574,0.6694214876033058,0.45437272692401204,0.36423739175205044,0.7409263261038135,0.2833431330839896,0.6710536445842082,0.4823172445060231
220,0.21520850828573157,0.7438476429012343,0.8037129511250575,0.7933884297520661,0.663247105729338,0.5889153042773688,0.6592217413768291,0.25447762308669786,0.7374946009359741,0.5948623546592576
221,0.6933577950569723,0.7847150318120072,0.6638367856029999,0.5702479338842976,0.3071649956580674,0.26658369244764185,0.6851247275716891,0.4747427690237853,0.7824390253593148,0.4099208326708671
222,0.40518276067205017,0.6341758677444275,0.5978005680765562,0.5619834710743802,0.31807393546315876,0.26175091864438843,0.7176170134429208,0.36466438963040504,0.6309436437804264,0.5136781244157619
223,0.4288934117213925,0.5033385013280562,0.4774542046847271,0.5206611570247934,0.19071774489649498,0.18352095100598131,0.6169175789445476,0.35077438228889013,0.500694981532716,0.5015706040305239
224,0.36720243725041457,0.4283643272140185,0.44579792234267657,0.41322314049586784,0.1530986483107533,0.12652901057706695,0.7082794925204855,0.278162719512839,0.4251553710632405,0.41122134701774216
225,0.3361107787718427,0.6965343676022361,0.7687604511664723,0.7355371900826446,0.5511839779531562,0.4202614945069834,0.7903476578093478,0.2367053875246784,0.6901367921805359,0.5544282570742989
226,0.5386779227767853,0.3550613048432083,0.310990387446489,0.347107438016529,0.07925681081523556,0.06166234786403986,0.7668592703197974,0.40284304019914696,0.35360195850800935,0.3050333453316534
227,0.18850879837631562,0.7415776117883837,0.8340286390964922,0.9256198347107438,0.6939875751662078,0.6578497019588226,0.6074235433224155,0.22633976434914316,0.7342810582583137,0.7898491946103928
228,0.3972891220248318,0.4894596725515271,0.44859196537778,0.5454545454545455,0.194401802864869,0.15397461229317244,0.746696533386208,0.3856787900283296,0.4872830402838627,0.5266140359826421
229,0.40526405574119306,0.42501615532670983,0.4389939750829145,0.49586776859504134,0.18899740364269507,0.15157987272509427,0.735618264331903,0.28353988445517353,0.4219284146504099,0.5256937002709455
230,0.6819851516163467,0.6261252632076828,0.5458075352975008,0.44628099173553726,0.23095996668893243,0.1591598734042167,0.8805817825026531,0.4405173047775808,0.6239738455664451,0.29844388883161865
231,0.38042573813973535,0.41147345789031886,0.4400954908087611,0.4628099173553719,0.1806946880488215,0.13937765952723397,0.7702300586053712,0.2563026124987108,0.4080845527013348,0.433017952666072
232,0.5134771794194444,0.5796777676395881,0.5270991716476942,0.44628099173553726,0.2326477161374491,0.1699716232866248,0.8226309335675611,0.39822208696701134,0.5771646760207517,0.3463051636743266
233,0.5086181853580745,0.45984526497605616,0.38788508754968276,0.39669421487603307,0.12061917869716039,0.08920877244276171,0.8032484131083572,0.45904044421267676,0.4585765057383083,0.3497133138921322
234,0.3673970502786654,0.4790311048428948,0.5936517303598778,0.5454545454545455,0.3478362683812069,0.25725142220000957,0.8145212636332656,0.14903999127230272,0.47274416571940525,0.5512383399205335
235,0.3562064360832615,0.42802832775488364,0.45232031323354505,0.38842975206611574,0.1509837646163156,0.12580114841306209,0.7008539070764056,0.2658796949644192,0.4246503937598963,0.3643435505039302
236,0.24592074670060615,0.7223428175115661,0.7792525895273084,0.8099173553719009,0.6129288880322857,0.5077689016775061,0.7323889644062115,0.2551566241192904,0.7162078803163675,0.6457376832918884
237,0.6120154949919578,0.5349069170448459,0.5401770027137046,0.2066115702479339,0.2220553279841828,0.17122402102678022,0.7721173051323247,0.30506316465336547,0.5312765259292584,0.3972670404150318
238,0.4171071347206614,0.4971645435246913,0.5931193269675376,0.4380165289256198,0.34540306679329846,0.2640699034710846,0.782863530050406,0.17587968476869187,0.4913321125355027,0.47861644707265905
239,0.5181406371564146,0.7562643540571895,0.6979901492097277,0.5371900826446281,0.4090062930807665,0.3106900344642328,0.7922949782949399,0.39147570931899034,0.7527687602025104,0.29765760189642576
240,0.36692787789013503,0.42703761687826075,0.4463015826528074,0.41322314049586784,0.15307801052121026,0.12677335339761528,0.7063514033611464,0.2746296914984171,0.4237935418979718,0.4121566292265445
241,0.41596146904943265,0.49674662312821094,0.5931315972401935,0.4380165289256198,0.34545914466083255,0.2639127582960185,0.783593144151889,0.17526111178073023,0.490903717114234,0.48029015997315805
242,0.4731389957720682,0.45040706669298436,0.37481405933801176,0.3801652892561984,0.11911453846057969,0.0896696283203495,0.7866335499325662,0.46997628704553285,0.4492772641585825,0.32566886601373624
243,0.5581320019414118,0.46896528507979096,0.40074890653171585,0.4049586776859504,0.12512313368350683,0.0920559682371237,0.8099017554122248,0.44779101887431283,0.46755717885975956,0.35309096393627926
244,0.4543988018068499,0.4339054297904723,0.46416017258556397,0.4628099173553719,0.18238818076789556,0.1380488453250918,0.7894343157159385,0.25576399024009766,0.430328788287981,0.42512358930008887
245,0.4447318492459822,0.21421999312649448,0.1779604836276546,0.2975206611570248,0.02318904199983202,0.027881882726875022,0.4361329717262944,0.4188076465307742,0.21371077043137615,0.4689512559054104
246,0.45391213322071366,0.4961980645950145,0.5099686980360544,0.38842975206611574,0.217979755959537,0.14719997037940416,0.9009511952557209,0.2887292646158218,0.49262338806903916,0.22872435864038318
247,0.5509642334809228,0.4664655873610146,0.43190938216078334,0.4545454545454546,0.16223596884057923,0.1249853126496471,0.7844406618638731,0.3835453979638366,0.4642456836684188,0.3803703263009489
248,0.6049244982518736,0.5192025372317564,0.46157532068046403,0.42148760330578516,0.16053292245862552,0.11403533408605482,0.8518691868465945,0.41689035231009,0.5172353809037776,0.2735716373042856
249,0.5498036763263314,0.5151193735521657,0.47661095705390266,0.4793388429752067,0.17674452927051632,0.13656688193759664,0.7681317244460942,0.37682522535848484,0.512723890109572,0.38938288773580454
250,0.4103750227436769,0.4477362887672578,0.4478463364972578,0.39669421487603307,0.15185794584243106,0.12330128035474933,0.7269115072885614,0.3096755717824542,0.44479714757695915,0.38811506264895046
251,0.447550229852411,0.5262436160661895,0.4611812620338541,0.5289256198347108,0.19647073425350836,0.15207405996157705,0.7685556459367917,0.42782492775648384,0.5243977851025794,0.49595681989943163
252,0.6239480583592054,0.6884287272011,0.6312588984158781,0.6115702479338844,0.29629304359101927,0.2527332664423451,0.6919644335458708,0.3875342691810526,0.685249462394914,0.4335538173582938
253,0.5684722267121058,0.4227199942839332,0.3922674148064932,0.371900826446281,0.1290148183313507,0.09473149396136916,0.8111530965620483,0.3716621831649646,0.4207345257647379,0.35498417936107174
254,0.29460194984367405,0.6683481475581773,0.7722551341640667,0.8016528925619835,0.5390818611481315,0.4509765473401546,0.7075664758131044,0.20087311254310103,0.6612356927836006,0.6090023808555723
255,0.4288844751305432,0.6622274443849545,0.7195213754238716,0.6694214876033058,0.4575854438861394,0.362907841524802,0.7505377299659872,0.24935503051487706,0.6564637360729726,0.5170923033430048
256,0.6723960981251569,0.5808900931014392,0.4533279804364879,0.347107438016529,0.14466395570628038,0.10072484732680541,0.8638846924445139,0.5446053410080076,0.5800275917727084,0.23768927973001683
257,0.6174254866459847,0.501612294863344,0.46744589684394056,0.49586776859504134,0.1646571394185922,0.1353473754286586,0.7150602245247096,0.37254043036788353,0.4992153700188203,0.3874134319667345
258,0.6508105590048872,0.611464274766732,0.5393646301014348,0.44628099173553726,0.22893761527052267,0.16049830053290395,0.8640844453476698,0.42709956206579003,0.6092180451134599,0.314346171292034
259,0.5237068095850921,0.5953977763776555,0.5264116596927564,0.4545454545454546,0.22768775737706878,0.16832227100206118,0.8114111270189965,0.42462397878319313,0.5931899827006836,0.3558590443169083
260,0.3987896521523686,0.6312931392015797,0.6966646084958026,0.6859504132231405,0.4406943402613872,0.3613651178277009,0.7203080342606196,0.23644877566335532,0.6254787277051457,0.5267593665535154
261,0.525781490796029,0.24049528738821935,0.281656116137343,0.3223140495867769,0.06837960568170448,0.0541014515181871,0.7369977813659304,0.18515214594265572,0.23782965535476536,0.46892213714304176
