,mean_nni,sdnn,rmssd,nni_50,lf,hf,lf_hf_ratio,ratio_sd2_sd1,sd2,sampen
0,0.9590129701682244,0.6596139883674876,0.28447662494733694,0.2520325203252033,0.08366280338599041,0.05282162556338093,0.773543035713013,0.5771017748740621,0.6615655705233292,0.014447808921554048
1,0.8602743113766635,0.8893566313845139,0.4472337494713229,0.5284552845528455,0.15002422379240735,0.11453069756581898,0.5559266404311723,0.496223628653747,0.8906575709669694,0.09362015983839693
2,0.700635198330327,0.6283913828700323,0.3483958533387971,0.39837398373983746,0.12341885443614106,0.0874872046791637,0.641902714703216,0.4126969317994194,0.628976190994737,0.0603352509850973
3,0.8784000858822392,0.9186471337009023,0.4591081850737173,0.5040650406504065,0.1472002830037352,0.15881790093042447,0.19894713891431193,0.5025758316133768,0.9200108127160542,0.048882793284983586
4,0.8171233938915186,0.8032689217384591,0.3866907975157296,0.5284552845528455,0.15841325250713284,0.09938376980418286,0.8167249995855049,0.5193436794691064,0.8048141195099039,0.06105063531722822
5,0.5099651447962716,0.8187925210277048,0.4444021503891453,0.6097560975609756,0.23314231498643154,0.1789099427081908,0.5580833399037425,0.4407941485456041,0.8194886611609908,0.08740734325316098
6,1.0,0.9477950971066533,0.3993487907941953,0.41463414634146345,0.15782347207255323,0.09841758989712118,0.8253081545465691,0.6311044954629601,0.9503281936283292,0.029260071105646587
7,0.6505446785268045,0.6164738678069585,0.2532085889651307,0.4959349593495936,0.07760223514363947,0.056041214834474336,0.5994053472721604,0.6027963196730157,0.6185500703210846,0.043752266638406326
8,0.9454215224023814,0.7705785337545344,0.20290468999696232,0.26829268292682934,0.05636386254771711,0.03876250891597818,0.637706764209783,1.0,0.7743465300741279,0.0
9,0.8001865469711857,0.9549682954959304,0.4784431930314107,0.5365853658536586,0.2101082557362957,0.14883407661710432,0.6578239874213857,0.5032096350009512,0.9563319301189135,0.07567854374673567
10,0.7461679017482492,0.7327271193743974,0.26642307792151776,0.38211382113821146,0.07659009202048389,0.05907795837188706,0.5226230963903044,0.7157535511984241,0.7354951865607747,0.05800205901147169
11,0.7154175550168476,0.6689535997022482,0.2844989194837489,0.4796747967479676,0.0936345915431889,0.068832211326455,0.5866206696105208,0.5883956000741972,0.6709809315054689,0.06735711801615922
12,0.7263093790888941,0.565302992062279,0.2565711063890071,0.39024390243902446,0.09582592566112724,0.0694943035249277,0.6039090138517594,0.526910525566535,0.5669038272892817,0.03820219629667977
13,0.7641641897301228,0.7409720145218988,0.2302755879954268,0.3089430894308944,0.07326383129404897,0.04486078357597784,0.8046119198625487,0.8450214833060457,0.7442490509878759,0.01794627090417078
14,0.8901938644071601,0.8588690473237721,0.3251433442825238,0.4390243902439025,0.10211050562298092,0.07488895035254767,0.5927914750699169,0.7055812409948972,0.8617673641472877,0.05846770516735923
15,0.9193970870289738,0.7228061094614107,0.32909742761343835,0.45528455284552855,0.12200370703586258,0.07709158822423987,0.7947312004012658,0.5489854044484939,0.7245881817047695,0.05009170552284879
16,0.7626225670902236,0.7679756565668966,0.3459941169076371,0.4227642276422765,0.11658340656659605,0.08906333769386082,0.5484392122696137,0.5618690197380096,0.7698699608163481,0.03721976387431368
17,0.7325178289464116,0.82564581943168,0.3555260439287581,0.5528455284552846,0.1432397726792656,0.1044715144551425,0.6107592578927944,0.6014102524863127,0.8278631464214029,0.08408419454039583
18,0.7077380355134952,0.815974397821785,0.35753537122359075,0.4390243902439025,0.1333115956304062,0.0911681644461007,0.6910925564297016,0.5874696954990304,0.8180842503251862,0.02687836942003953
19,0.5684345223327911,0.8341513572992553,0.3480807996315948,0.5040650406504065,0.13378274762178033,0.10093513914432371,0.5672385977487729,0.6259992382704598,0.8365449037879195,0.04659496017620619
20,0.6227455212175346,0.6678956450594049,0.2968896488951036,0.4227642276422765,0.10860942462457027,0.0754265852068612,0.6630407540213369,0.5577665469729278,0.669723861178633,0.08867296130958878
21,0.44484596284106415,0.9063633513076351,0.45806014755976165,0.8211382113821138,0.2535466746529921,0.20801471919916778,0.4796415178185972,0.4940297709623817,0.9076352296094092,0.15581905694775483
22,0.37578788143478326,0.72132674285592,0.4021266734415654,0.7317073170731707,0.18844370707189498,0.14733275818140787,0.5319950001165515,0.4172570086286989,0.7218411881515187,0.12070276636430498
23,0.7174573422266151,0.7794271282173332,0.3818752684349579,0.5203252032520326,0.1491551393405886,0.10806860925201721,0.6202124953766158,0.5051309325091207,0.7808427191518679,0.0686015282716416
24,0.5008693270564168,0.836792304912478,0.46240712914492765,0.7154471544715447,0.25111976680224035,0.19985120665513922,0.5151650027479303,0.4304721138711745,0.8373371962281301,0.09957039967017821
25,0.43291358759804677,0.561097589598205,0.2586516456714292,0.47154471544715454,0.08848437804935935,0.061152839816002516,0.6596561344700457,0.5164420721448668,0.5626287418843637,0.053626878194111646
26,0.4461841407391671,0.4066913638905551,0.2123128071648036,0.38211382113821146,0.05352539971362477,0.06082258537731593,0.1487176380267502,0.4146503553909214,0.40759312010286397,0.08637434406622245
27,0.1588792760280795,0.6768451497053715,0.3450141817936406,0.7317073170731707,0.1969279221890963,0.22315981379306438,0.1579244646485345,0.4690032652413522,0.6779585005926648,0.14151859346343243
28,0.20404426426397704,1.0,0.5793926747220918,0.967479674796748,0.45791397691825975,0.3917544227268649,0.43655890929515595,0.40805117797396734,1.0,0.16448284189282275
29,0.3968556683109683,0.891953369796896,0.5341894496448166,0.8373983739837398,0.3411098858420702,0.2683617710266788,0.5324242878089859,0.38300217733268166,0.8917032748956479,0.12767397857686613
30,0.30834080387638196,0.8156300994628761,0.44074490743975336,0.8048780487804879,0.24322234326651393,0.20202729323613625,0.46498506025436137,0.4434203787443323,0.8163617575241404,0.14183883847295353
31,0.5123456800795854,0.7198975391100881,0.29836956562918443,0.5447154471544715,0.10983078988696968,0.08844397081005102,0.4861098815901538,0.6150135643619905,0.7221236302045533,0.08625267261352691
32,0.2770563507888928,0.7813103004338567,0.43036513355951234,0.894308943089431,0.23149941920090286,0.20011449570362924,0.4198810618611487,0.42894946899205916,0.7818971741738118,0.16100223075768438
33,0.31764288951072017,0.9683885443895017,0.9060976688759238,0.7154471544715447,0.9322282418314066,0.6693929504730791,0.6568159736480984,0.15012739542025183,0.9601419028377653,0.5837609295201682
34,0.5090759239359981,0.7983555136133006,0.7128129801508755,0.5203252032520326,0.48660182931975815,0.3515289450423922,0.6441941144735978,0.17016762208112635,0.7926272507392381,0.6271241557778322
35,0.3579031697023809,0.33202406544618657,0.3570902272651938,0.27642276422764234,0.135549624566676,0.09366648869672106,0.6780621640665451,0.09608313307959049,0.3281329222044819,0.4052888337688079
36,0.38778087948382334,0.3696507367775339,0.35433341685197234,0.3008130081300813,0.1509145669658354,0.11089037592178816,0.6029078965407958,0.13753564356029968,0.366608969450164,0.4429721290621935
37,0.38075146898788037,0.5482242621793671,0.6242296349801144,0.3170731707317074,0.4989176090036296,0.36456401393337057,0.6293240687912814,0.07275530682730402,0.5402486259959741,0.2899986143502062
38,0.3747875012580526,0.3832211891337885,0.407966017608579,0.33333333333333337,0.22993145064064124,0.22045263723597014,0.3117314514764188,0.09894707946727532,0.3787776606837082,0.344130095622605
39,0.4083804169629046,0.7414884474482292,0.7818292074949882,0.5528455284552846,0.6441026027069159,0.4437007454595178,0.7115278038110769,0.10031788834412492,0.7325964764160812,0.377467086231246
40,0.3727821547674761,0.7923676550368167,0.79195880272566,0.7317073170731707,0.6542679206675741,0.5314734150547037,0.4984298148871934,0.12173901524728714,0.7842065237981848,0.6196965752528796
41,0.45098781974958024,0.6563267213395556,0.6637406244818495,0.6422764227642277,0.5188266686709961,0.3544007512565347,0.7213601674952662,0.11706384031492167,0.6494241169488547,0.5542703328036056
42,0.5328618210496923,0.6663920798538802,0.6553284016965484,0.5365853658536586,0.4149085704542622,0.2927056585942228,0.6743904413791172,0.1284011691421572,0.6599503483386766,0.4487925540476565
43,0.3433736522696511,0.6138926336902054,0.7211489166597561,0.6585365853658537,0.6417252514112737,0.5014936255679299,0.5453475144623815,0.06083965007488079,0.6041079954571928,0.45212857669925455
44,0.395265614464535,0.6817310821746697,0.8568040746668385,0.6666666666666667,0.8020164458571423,0.522657741170886,0.7932773940125762,0.03650384261476031,0.6687224796633063,0.5066564765061083
45,0.2402524151913783,0.7781957509550014,0.7883268689159233,0.6260162601626017,0.7388118515445776,0.5855231067310205,0.5287837759811108,0.11628401624975648,0.7698654368223666,0.575014533261886
46,0.45519711659830797,0.7486670726499892,0.723838899364663,0.5772357723577236,0.4836493546384388,0.3419785946058671,0.6729562771363277,0.13551450637441725,0.7417324460210547,0.5695758670135405
47,0.29295592965421546,0.6129368486164469,0.7149325794902756,0.6422764227642277,0.5465821047311654,0.4332588955273813,0.5269663984714353,0.06338179511489139,0.6033504425504502,0.5390216151663091
48,0.32818638182934423,0.9747168442361931,1.0,0.7642276422764228,1.0,0.814506584282169,0.4968327194545935,0.11089398251427035,0.9637413867049958,0.6632676582855825
49,0.1759331632574963,0.7558183998316217,0.7477684674649984,0.8130081300813009,0.7458893609651077,0.6385812108166544,0.4378654384648165,0.1259682310967966,0.748297564747625,0.6729936461051078
50,0.3119702603876615,0.8151842940333416,0.7988851873595272,0.7398373983739838,0.7739264262940322,0.5487821737381365,0.6728451815171227,0.1299900616954579,0.8072623984742165,0.6393767599655426
51,0.006842038395306949,0.6621305866877752,0.7823788622981854,0.943089430894309,0.7592334520022653,0.95102082348961,0.07796782019838533,0.058234954389315086,0.6513651305740096,0.9132343396020676
52,0.06896406535501742,0.6839589503222209,0.8093776776110363,1.0,0.9122384418320002,0.8422168339433367,0.355840911994476,0.05748689637116933,0.6727750534973989,1.0000000000000002
53,0.0,0.567732856955708,0.6767953689977672,0.9593495934959351,0.5173266162634128,0.6594084410088908,0.06443012434532036,0.05625260001370597,0.5583741100844762,0.986814071283684
54,0.31749915293937203,0.24495072540766555,0.22234764728702133,0.1869918699186992,0.07521436458333064,0.05860886734709707,0.5105352289710473,0.15502704378860632,0.24349442804281468,0.5222250346860906
55,0.47836931545178185,0.12022412901897052,0.038443556096958376,0.08943089430894309,0.00447239417071438,0.004512996496674466,0.14334191293027165,0.41162530661013713,0.12149790851248983,0.3035287504853016
56,0.5100868732791071,0.06615282644348446,0.010123423207540366,0.06504065040650407,0.00017035422039244838,0.0004226143830478946,0.016302137038632813,0.37693050340834516,0.06741085445416091,0.22299564346577716
57,0.46359226744841253,0.0898718687318265,0.056157129010854484,0.07317073170731708,0.006198280495608823,0.007990958968235838,0.050002980570309274,0.22767658309174316,0.09039456371696154,0.5752958087805085
58,0.34558243328705873,0.15349697415774954,0.13848388882224938,0.1788617886178862,0.0273534780949946,0.028247541134028522,0.21198510103152712,0.1522970734817245,0.15282595642893632,0.5589255947219093
59,0.3574213187454176,0.3502169233280816,0.42028232525584097,0.3658536585365854,0.19522138766157446,0.13124690507286582,0.7262975279354208,0.05874575819668587,0.34458056370807655,0.5302860131067079
60,0.4894699558423721,0.5495552617094596,0.5058226214348583,0.3495934959349594,0.30756259196959546,0.22693103431462186,0.6114028000156017,0.15521235950572604,0.5453674623083785,0.4647811884102526
61,0.37465121175725535,0.41587706703171673,0.47419831045625593,0.3089430894308944,0.2525334945453613,0.17376956456644863,0.700566057849079,0.07425068323556983,0.4099473846741689,0.4453595738445262
62,0.2950915797100091,0.29383858515219,0.2398741476071221,0.33333333333333337,0.08706529890388544,0.07652658696519463,0.38670584889778226,0.19663238232759767,0.2927173427367946,0.5268965761169407
63,0.3190078178292597,0.2778582270958258,0.32111983694422386,0.4308943089430895,0.13692864039527047,0.12342401155015133,0.36911499903622824,0.07356127338225804,0.2739447005576617,0.5894897486437414
64,0.40515840026905603,0.7344773897862942,0.6523937619026378,0.5528455284552846,0.5089245007960461,0.35440770706626146,0.6943108425210166,0.1721276978179998,0.7293530331908743,0.39587596677631487
65,0.4091628392194937,0.3582578015576537,0.4855456484184494,0.3577235772357724,0.29191716185532335,0.18770298968770455,0.7993410454437929,0.019944880743512028,0.3503573599133163,0.50907143854624
66,0.30693824072714593,0.685128839981118,0.6421221827309435,0.7723577235772359,0.4539992350869117,0.4791484996441591,0.22261206231256214,0.14845333921491188,0.6794317355159236,0.7405385123721933
67,0.4180585234871874,0.4615151456582088,0.3418919086237044,0.47154471544715454,0.16421566450714187,0.1277934989294268,0.5349386016623184,0.24826750105072742,0.4602868258623875,0.2580362884143612
68,0.3830545283998217,0.27772617110157233,0.35205977405427563,0.28455284552845533,0.1877255383277289,0.13435903117392778,0.6417868132046415,0.04456917298925084,0.2726938560371208,0.444360942490462
69,0.27798311423405186,0.4177375365469142,0.47608777012049674,0.5203252032520326,0.2401472332092643,0.20625237805125488,0.4273589041087117,0.07442880405552504,0.41178881777718995,0.5235481303350878
70,0.7027747422986277,0.2937923018105385,0.21085462830087903,0.20325203252032525,0.043217793317528765,0.030716291532721544,0.5797038989738167,0.24767887156591878,0.29340436664026887,0.4188952865172366
71,0.5437296421871949,0.15923616932659734,0.11668200498080641,0.12195121951219513,0.027676492381093824,0.02077942509147426,0.48497436241318226,0.2161113402102693,0.15925171956780915,0.49753468693096936
72,0.45726046614256877,0.19856445967751496,0.15753531525652925,0.13008130081300817,0.04518753327827272,0.037306450447160286,0.42695059646111255,0.19772866730316058,0.19812150847565813,0.4909055706401181
73,0.620426115177771,0.06045838445917982,0.11237871416572509,0.14634146341463417,0.01063757984131685,0.012839988328502389,0.08789266351183134,0.004524497369435498,0.0584739619516771,0.5634865370330213
74,0.5894802028414587,0.2845862141606276,0.26017455417232116,0.27642276422764234,0.07461759459004033,0.05598238577017886,0.5529719893005952,0.15387187057378182,0.2827498726621494,0.22016669706054237
75,0.6557546882237184,0.43049527697804696,0.4974349505097164,0.3170731707317074,0.21986772082565884,0.1578225664862661,0.6414587750179882,0.06942577400455763,0.42411022676744353,0.32264811512628294
76,0.6872081244427202,0.29593423805878594,0.23101741236473078,0.1707317073170732,0.0648252303066063,0.046010353520105546,0.6099794351334046,0.21420461110308747,0.2950754062566952,0.3258129956351027
77,0.4871913928879188,0.3868809658910152,0.3287912207499535,0.3008130081300813,0.1536043568940668,0.10198457757555801,0.7359364050506575,0.18514893989974585,0.38486800336577914,0.34520575091199274
78,0.6720894390194081,0.21923647669671342,0.24267670373902622,0.21951219512195125,0.07529623236479605,0.055112683880315885,0.58203435631221,0.08965813571656206,0.2166361945291413,0.4329938052689932
79,0.7021223855376402,0.5436710098466702,0.23890890495838668,0.2439024390243903,0.050714726076427304,0.039836553320604436,0.48347465729054784,0.5428512988043677,0.5453689834666319,0.1946490335026992
80,0.5428729850949736,0.18096571396414346,0.20788626535642207,0.14634146341463417,0.06804855417586528,0.046266616224528725,0.6646264801831093,0.08060693921585882,0.17866606942484287,0.40641046101617784
81,0.556385188115728,0.2618287262599721,0.2790753678365451,0.2439024390243903,0.09962061992841213,0.06040765036185167,0.841062506121604,0.1004620347057203,0.25896442111959816,0.4597797888075891
82,0.5526291793823108,0.01676897301499637,0.04560623218778506,0.06504065040650407,0.0048759798135460395,0.005698756689186722,0.08878141688458208,0.025497968884646227,0.016143664058345025,0.6038020841478288
83,0.3494574900635894,0.5475233549918388,0.5685868961565942,0.5447154471544715,0.4017052505480203,0.38118903355589845,0.32501118352475344,0.10695571582034386,0.5413894500966477,0.4999564262184901
84,0.41829414705708046,0.47091226324372265,0.4962143004730143,0.39837398373983746,0.2724392585055856,0.1881137893251018,0.6973402093630147,0.10187655713147292,0.46548600740729745,0.44354632830840823
85,0.3765170409784149,0.4664013016295195,0.43451606835528633,0.3252032520325204,0.2669379412416595,0.20294191142435908,0.5715926548165563,0.14949236715172232,0.46278314896038725,0.3829782074088282
86,0.537757727451063,0.38764494714418724,0.46460478667390215,0.47154471544715454,0.27707863784868325,0.17320182686953672,0.8399369819481589,0.05798018174675734,0.38135945403157906,0.4677810991290766
87,0.4871913928879188,0.16466636285414282,0.20911337049706902,0.20325203252032525,0.07801633674216121,0.0626450239273926,0.47886729742998757,0.05385751954585033,0.16192368096481008,0.6420906274113609
88,0.4139042344443804,0.2147245318897349,0.12887594663987928,0.15447154471544716,0.03844153021190399,0.03191543211696573,0.4130961749932437,0.3008044393337855,0.21520099259495007,0.38080320005923307
89,0.43066853745395006,0.06472761772603962,0.0340770551335524,0.04878048780487805,0.0028658080912789975,0.00397858778449759,0.024663385287762685,0.23522037345981966,0.06543666888019685,0.6489465633186657
90,0.5325444052563308,0.2914187585721798,0.2329828829560031,0.08943089430894309,0.06048126630994782,0.03173415953652332,0.9999999999999999,0.2044987521630342,0.2904402790285251,0.30566791403436955
91,0.3506828752979927,0.5924965088899098,0.5964013780531828,0.4308943089430895,0.44361915585365796,0.32105066531799575,0.6409290804152693,0.11898722402868889,0.5864077077421675,0.35088619478929545
92,0.09920562620338114,0.6955056623097502,0.6470782563237415,0.7886178861788619,0.5915797301893682,0.49850154688712994,0.4550583343284661,0.15165080528181746,0.6898530264071189,0.739984512836014
93,0.12859925499362435,0.6039719692563993,0.5639363441658296,0.5934959349593496,0.3644663652662066,0.3011916138551195,0.474662788135669,0.1496336450058815,0.5990805210646014,0.6268490059160966
94,0.515093933081495,0.19951655775966637,0.17615988898064372,0.05691056910569106,0.04342401463833249,0.024631162701054532,0.8461212114775515,0.16215471272107485,0.19857932678465945,0.40495712214579815
95,0.40728935178588865,0.12000423845946216,0.09305468636157996,0.09756097560975611,0.013610696049292739,0.014933218806429907,0.14950116435728,0.18952903196478094,0.12003043124841538,0.5736765482364073
96,0.3485199551469518,0.2919235154088201,0.323695306548531,0.34146341463414637,0.15895985143697725,0.11828387765186758,0.5885667058808876,0.08660632060690071,0.2882490129579267,0.5297952588423305
97,0.37277404185093244,0.47643640930293013,0.45894561462654404,0.3252032520325204,0.25507891429520624,0.2229612244845402,0.4086660966390635,0.13625476882826237,0.47228271957107976,0.4006365979050922
98,0.4881482917435114,0.5133087818672842,0.5592705674294379,0.5853658536585367,0.37513823526607365,0.2727814033885526,0.632854479299462,0.08920197846581496,0.5067395100476636,0.5114071436289331
99,0.33406910488438313,0.6792927069609364,0.7966915313160127,0.7886178861788619,0.7369594361570123,0.6188612787690326,0.4599432634328019,0.06076039106757991,0.6684490344620271,0.7167543406833226
100,0.33436926180830784,0.7109990504215834,0.7561133395655748,0.6666666666666667,0.6428048755915976,0.41933787357564045,0.7898123923608561,0.09709228214545473,0.7022866128375908,0.5769975386256196
101,0.5281793502637493,0.31999622438715836,0.18491906907793404,0.2520325203252033,0.05517804454814853,0.043767743379495336,0.4775455350295851,0.34577551254545275,0.3205149344199311,0.1860564383317766
102,0.443749429038963,0.4842164720826965,0.5191015191277389,0.5203252032520326,0.3357536366664027,0.25662076169891607,0.567823065216888,0.09538923389012505,0.4783311939339327,0.5123817609749488
103,0.41928640035403264,0.45230054644792445,0.4927336782491717,0.40650406504065045,0.24884468321097425,0.18520367775929483,0.5972375556181656,0.08985423979335666,0.44658191182056267,0.3972215251304626
104,0.5805538687447513,0.7615526823630419,0.7261924283874257,0.5691056910569106,0.5581636608908691,0.374403377518985,0.7479071501427362,0.14137859624336063,0.754790174452473,0.37908065335617447
105,0.5193604719045695,0.5562162635563327,0.5587540341990426,0.39837398373983746,0.27970998831218097,0.2013130911357194,0.6423087018212196,0.1198204654913047,0.5505705127158896,0.2981206901655855
106,0.5322727221648167,0.5554290192570634,0.32602559139812404,0.33333333333333337,0.11019936808566783,0.07808690745078203,0.6381511508765819,0.372756843068438,0.5556830853521111,0.4343057649032578
107,0.44849698674462735,0.38198951519301355,0.37271223166130085,0.4471544715447155,0.1606058196626416,0.1284565667618421,0.502328805116114,0.13091734400336624,0.3786297925277738,0.5015659202914408
108,0.19648193642439749,0.5905445524416195,0.7125628554628469,0.6991869918699187,0.4585567758768455,0.5795134262336559,0.07096864669296166,0.051722650445245766,0.5804722101510881,0.5643419507667499
109,0.4202754321543227,0.34171585183163966,0.36987734710614134,0.3252032520325204,0.16831002554979554,0.14196017985459888,0.44299617792244106,0.09369091333074014,0.33761619457479536,0.4751088126735533
110,0.17538727556374445,0.649012397051952,0.5806035299484698,0.8373983739837398,0.43335120049165093,0.40918903256414024,0.3303529344708894,0.16835969345886442,0.6444415721968818,0.5184420242398281
111,0.5279597066407455,0.6600547535503631,0.6320174103364244,0.6260162601626017,0.35731298649413124,0.2679275880602565,0.5925919973535417,0.13935668576746485,0.6541926619923161,0.5762911576881975
112,0.37552114466739606,0.4482738967590762,0.48187959821283255,0.4959349593495936,0.2865739347195813,0.20964547240858977,0.6214271376883179,0.09472660624503143,0.44282519127800496,0.586583365360502
113,0.41549876674124553,0.6614735085790787,0.5908678471440493,0.5447154471544715,0.45319692374041093,0.3199414732237827,0.6744240550682906,0.16901507161752571,0.6568241796979096,0.5361115882207381
114,0.4227437220862542,0.7440137311904177,0.8358792950621785,0.6829268292682927,0.641375791460039,0.4125427258534992,0.8107674123886984,0.07600139346139168,0.7333697561485767,0.5354157553834966
115,0.34107195064046314,0.5335270207469561,0.6519676360198274,0.6097560975609756,0.4556036254613317,0.3081839164066062,0.7336975878290789,0.04825456544539386,0.5241853441235748,0.48458511371956703
116,0.16081688518439075,0.3702871193328521,0.4465808060779739,0.41463414634146345,0.2941311727037551,0.33572190881073866,0.15274706947417738,0.05642019068908366,0.3642099027301916,0.42711924806128265
117,0.18391158653234463,0.34497300361806993,0.3912900986977004,0.12195121951219513,0.24661051807173445,0.1565600473674764,0.8140305989962772,0.07760757527938394,0.34022643365341526,0.3483762228232874
118,0.33317493435419254,0.5343472286529976,0.5934775021594332,0.5203252032520326,0.4344590655434857,0.34566768620246485,0.5208960593676494,0.08191983753802717,0.5271024370086864,0.4142298351748174
119,0.2816459363818593,0.4839238808745558,0.47314451295460647,0.27642276422764234,0.19984833223163437,0.1773591029914567,0.38997701843303234,0.1304230978071571,0.4794851609136737,0.29006519154751603
120,0.18052255725980038,0.3360722041833603,0.3176098931757263,0.41463414634146345,0.12326006401828576,0.10226915801607671,0.4555763393208393,0.14252402693881944,0.3334937757487709,0.6467762051022994
121,0.17587646743387997,0.2321915314442124,0.2707513405572173,0.3008130081300813,0.09227307246594083,0.11363208574017929,0.08931666459513832,0.07288319298520746,0.22893529051689537,0.5782930434230755
122,0.1806956691338859,0.4219379958483164,0.4524325576632541,0.3658536585365854,0.25045139893812424,0.1715407600842344,0.7067221261547946,0.09592163473594595,0.41688102209116423,0.43089207256748996
123,0.19740437284659218,0.29060099831436204,0.331831274288178,0.26829268292682934,0.18724596691266945,0.16346127590608556,0.4068634135941004,0.07698450732840284,0.28661949223058253,0.45260434421637497
124,0.2199392405273215,0.24661801113036225,0.3319710865432232,0.33333333333333337,0.10257854440597008,0.0886902975548464,0.4073672933964986,0.02898001871082545,0.2414874750103312,0.6452124499079116
125,0.32137429090291736,0.7391768813250078,0.6678230326096133,0.7073170731707318,0.41198236090057344,0.3990063292231423,0.30455530761135174,0.1647280825832988,0.7337051041200107,0.5973231074388862
126,0.4099640364506263,0.6756264875631245,0.6898819267585601,0.5691056910569106,0.4565864942448879,0.3204598932043494,0.6824417615437314,0.11321783650136213,0.6682978100967459,0.3968244771088875
127,0.1694840877303283,0.107602679005589,0.15880083480152682,0.22764227642276424,0.0406482404640462,0.03412612530293501,0.40536088462193576,0.027705851975446893,0.10519378620892282,0.7039000393027098
128,0.165676920331018,0.7453342062418372,0.6078897425276117,0.5284552845528455,0.47815631442829004,0.3107588978173599,0.7920137965320483,0.21155052382043288,0.7415746486297523,0.531361242847318
129,0.19803567025624558,0.44736828199768314,0.5080692512319811,0.48780487804878053,0.33795162935918827,0.3001876174038677,0.3933509188626173,0.07509085827204953,0.44101528269219065,0.40995598064149563
130,0.16919420926617867,0.40754428675110055,0.47501613606028015,0.47154471544715454,0.24942814080561232,0.24744973338137052,0.27882069811026833,0.06687855736069642,0.4013849078602176,0.5650562492090401
131,0.20209401804777727,0.609984957018707,0.6554788363931675,0.4959349593495936,0.5258506256887505,0.39350850008253707,0.5987592568127386,0.0935932406233928,0.6023693448250208,0.3610570791240185
132,0.14158283799783722,0.30236780827764476,0.3885933537855827,0.27642276422764234,0.218264440157279,0.20151704684370805,0.3494626053432638,0.03897888534868171,0.29663217600725245,0.3806363219240785
133,0.23256992026215073,0.20918538175972873,0.24022271647665427,0.13821138211382117,0.10068737332645918,0.07354706563295599,0.5971561542134521,0.07886948287411444,0.20643815405582006,0.4967587187882089
134,0.24390798374447553,0.2536898331510013,0.2179821385511428,0.15447154471544716,0.08302961728907168,0.0659610203571159,0.4927927224234868,0.1749995086237935,0.252509168820361,0.43229410073234475
135,0.2730993210017785,0.30560204734192387,0.4477155682652173,0.45528455284552855,0.23922313818564822,0.23023865315875944,0.3081984993448642,0.0,0.2975831230985496,0.5802027747424775
136,0.1583559376303536,0.34920890886544476,0.4115093087217979,0.41463414634146345,0.16918503255085962,0.23571560136929262,0.0,0.06471771555924177,0.3438584447775536,0.5180222529491638
137,0.20708581668681125,0.42873527307670684,0.5026082668623378,0.45528455284552855,0.32942188420936547,0.26348845536167576,0.5121835507551312,0.06449317159702472,0.4221243262909585,0.5096450464781083
138,0.2004266738201388,0.39018981510606077,0.426848570878375,0.3739837398373984,0.2381793903660416,0.18592639187474977,0.5375966744327901,0.08919203624988348,0.38527686517060966,0.37643943273312475
139,0.15087366668722724,0.4930538318751187,0.5139791165603614,0.6178861788617886,0.3059685951848219,0.29375643188598016,0.3120078035169821,0.10583055894640303,0.48752746926606366,0.6069700098281389
140,0.32580616691974473,0.4718557449289546,0.5893337894910515,0.5853658536585367,0.31622077855855135,0.34478813481105125,0.19245847840359132,0.04215202903960763,0.46319140611334514,0.4003141975667832
141,0.20802171425017302,0.5226303631949243,0.6376363288839035,0.5853658536585367,0.499244028197922,0.3469796311412481,0.6968453602891697,0.048981483868705544,0.5135294232889266,0.47176869283261724
142,0.24163303860370577,0.37924277176729865,0.4060333618443589,0.3252032520325204,0.23670873521715782,0.18396869929744397,0.542821959273803,0.09699741051224808,0.37477718271672505,0.45175758382542663
143,0.13505528117101462,0.039907842533695906,0.06421090763923779,0.08943089430894309,0.009104681488394696,0.009819751408264969,0.146139599943526,0.050571832442575404,0.039218182972855856,0.7490406361919542
144,0.24351958213854075,0.6425572630208666,0.734306126032545,0.853658536585366,0.6289756510984155,0.49704877393517616,0.5314976647970652,0.07046063134624692,0.633013761420042,0.752901928266847
145,0.17305400820669803,0.7408000159574835,0.8262821966570831,0.6910569105691057,0.7003911217913348,0.6503001551717749,0.34928816858139433,0.07872019364028926,0.730409611257283,0.42261379632253804
146,0.40719804267573667,0.30543517877233883,0.3027400000603591,0.2601626016260163,0.0878877827049729,0.06246177792449088,0.6247307169955504,0.12499187017667768,0.3027201932062207,0.4647712978410802
147,0.3235741896132329,0.21689816929167233,0.3148936789571831,0.3495934959349594,0.14442620303683681,0.11661061370597718,0.48940591224870855,0.010504637019914553,0.2115438064837713,0.7020824068932229
148,0.29088297290093656,0.26937104680511653,0.2743357128895427,0.3252032520325204,0.0959650513955657,0.08062863150294693,0.4361569382868461,0.11567105491746799,0.26681674634615377,0.459677065752758
149,0.35289460736486267,0.4001718333958249,0.43610787259192874,0.29268292682926833,0.259074562859006,0.15624577020276365,0.8926692080484037,0.09038591335329771,0.39517360119889,0.3610453150741559
150,0.30176383454613465,0.49004234899149685,0.5244811236081919,0.5284552845528455,0.3628734902772193,0.22408794371499996,0.8643301043343009,0.09594936607382798,0.48410776565883834,0.5345991105369245
151,0.23458217834004946,0.7218011533382622,0.7091857977990744,0.6829268292682927,0.5515828001474827,0.42660929830870936,0.55730471647068,0.128836774680333,0.7147966162061588,0.5089816073158582
152,0.25806439371323586,0.1775789636395106,0.1397356619089723,0.10569105691056911,0.043612873876003766,0.03494595505225949,0.4548334316955879,0.1973223707692096,0.1772768076124871,0.4907184387343845
153,0.2009082162131821,0.05964883552978974,0.028944128632062707,0.040650406504065054,0.003069470099452759,0.0031096106970918075,0.12171365112210986,0.24032007287626883,0.06041207486310486,0.6023698953149579
154,0.4889738225657805,0.4824888691920091,0.39002613866577573,0.1951219512195122,0.16551530931872074,0.12547539865359655,0.5666467921526149,0.209680640178233,0.48035998948853503,0.2368638010076452
155,0.21609274139103118,0.557553501678774,0.6237140518258972,0.5772357723577236,0.4448535518373433,0.30872502488890563,0.6976179803867034,0.07907351056794931,0.5498169914868747,0.5568845244270282
156,0.18750083159009212,0.6741007626783849,0.6195863252703456,0.6585365853658537,0.4344940921185577,0.35335280695344234,0.49471891788829103,0.15674104529983035,0.6688582071266191,0.6019013054050171
157,0.296164793579204,0.6580605051543144,0.5309396097356396,0.47154471544715454,0.27415574057753067,0.22480796319930327,0.4810822485563214,0.21515965897339256,0.6549618296682344,0.3806818933022726
158,0.22801987796428635,0.4045598233365502,0.49499940887624505,0.39837398373983746,0.33473947212647714,0.3341494971016489,0.274146647759967,0.05066469334522705,0.3976040684414975,0.33301595034581344
159,0.36795984071093724,0.8126880319806435,0.7509986500165864,0.8211382113821138,0.509403952430552,0.5463631818425717,0.2081257550187956,0.15510549571812404,0.8061324207381272,0.7522517569977867
160,0.15257587207062295,0.3482331316671452,0.381752548285932,0.4227642276422765,0.21256686553094012,0.23716891106035384,0.17135130162240908,0.08917744938254768,0.34388425957840163,0.5139372958164202
161,0.16984450724263223,0.6415916587407308,0.6922854481548556,0.4390243902439025,0.7029833790057525,0.4717469803303848,0.7494019412238658,0.09184906908789758,0.6334575203306732,0.36220068764732505
162,0.23601484272993334,0.4234020048037425,0.38693056827823435,0.3495934959349594,0.19654960502745175,0.13453820702456698,0.7019509701778855,0.15670075167226244,0.420388440546488,0.5383501711574236
163,0.3401957037542107,0.08701741858809993,0.12402881805730648,0.08943089430894309,0.037819901520488544,0.03295813045912423,0.36687411549340887,0.043027600298682356,0.0853632209874133,0.5325280064256387
164,0.27739489621903246,0.020173865041668876,0.034946768798892996,0.040650406504065054,0.004389286201403956,0.0036182316509444567,0.21778439627422574,0.06899731102719286,0.02003713912692813,0.704277066955617
165,0.3669426936550113,0.0,0.016961823587001504,0.01626016260162602,0.0016522824287888037,0.0017073282156044754,0.08958484586406845,0.050899819977321736,0.0,0.7661892367934156
166,0.2875416071340431,0.06166154891419996,0.0,0.0,0.0,0.0,0.04140805902373612,0.43324657296574637,0.06306483847348159,0.6163544775847296
167,0.06925700605193552,0.8770525502501796,0.8975957192473631,0.967479674796748,0.9513129851325258,1.0,0.22740012619626482,0.1119830371945631,0.8673021466337498,0.8724121481410416
168,0.07422788425977056,0.610044824383688,0.6854300788180991,0.6991869918699187,0.6606830091425417,0.6532838718535928,0.28531119000491134,0.07691995681219327,0.6014184140802137,0.6888882316462648
169,0.38986636945961517,0.59621858524699,0.4958934346848599,0.11382113821138214,0.26776539667483595,0.18118352507590388,0.7248445760869361,0.19975447807248886,0.5930785136251162,0.23837898128108465
170,0.26717606600934496,0.1728894654476001,0.17823379120091132,0.13821138211382117,0.051946470821151516,0.04898878143026563,0.30588099034605565,0.11297973600579869,0.17138719415784398,0.5033119094220206
171,0.35705865473060117,0.36378060002672413,0.38581906368432445,0.2357723577235773,0.1971362166217428,0.13031821162460627,0.7499381449928461,0.10052994657294095,0.35963949263709044,0.2323217835724214
172,0.22458188252589473,0.42366450544230966,0.46238681480854105,0.29268292682926833,0.2788692267445232,0.2426786448141422,0.41426279856922676,0.08954378423717252,0.41831626876660216,0.3842376210831443
173,0.2845659520169097,0.4218139304287339,0.47489731833674265,0.5040650406504065,0.24118417668988296,0.20741273831329973,0.4260607659601304,0.07872236154145407,0.41598986899984297,0.5150124328799546
174,0.012394258511351453,0.6640815191605696,0.7847919092128749,0.943089430894309,0.7729084304915991,0.9412963549068879,0.10280301385647939,0.05816809593379474,0.6532786644774559,0.9209891098280248
175,0.5242881429703701,0.26576078526527597,0.2742599292074333,0.2520325203252033,0.09807833686914585,0.06238768438950888,0.7852497894310274,0.11227550388354729,0.2631105962041899,0.4680243477366184
176,0.4483631533818069,0.6556060823623873,0.6645908440326636,0.6422764227642277,0.5192876437280308,0.355710463612489,0.7181315863060288,0.11617226420009585,0.6486589041581943,0.554017075082584
177,0.24878628695752214,0.6743394932634631,0.8287374079427159,0.7642276422764228,0.7858824505110872,0.6841987497313311,0.5235253197642401,0.04469891324082648,0.6621768089611461,0.6599820098535486
178,0.4415585395668342,0.3805794781182295,0.3706119580848476,0.4227642276422765,0.1594983335612254,0.12644915731552817,0.5138226696691054,0.13167366261393432,0.37725609039632246,0.49487000476371346
179,0.3675497707265343,0.7111046844146349,0.675529796221824,0.6910569105691057,0.46612086423135873,0.4230703878590227,0.4067228059456255,0.14316365621778582,0.7049016533308035,0.6706451758212288
180,0.32748044717500946,0.6862385745397687,0.7961040889580591,0.7723577235772359,0.737089529544065,0.6165199703628904,0.46477786775749996,0.06465976294166764,0.6755714128304702,0.7068000875760312
181,0.3437113349821963,0.6159419705897748,0.7219619901715241,0.6585365853658537,0.6418692724329949,0.5018378680752175,0.5448087826428986,0.06153892617114631,0.6061759742527834,0.45405267386440373
182,0.3390001484394367,0.6610579901167525,0.7381314140488148,0.6585365853658537,0.6422496334344777,0.46158992552793815,0.664086043675643,0.0784478408676586,0.6517941282389389,0.5127784214171563
183,0.3713039826126916,0.7892364978562374,0.7905794282126567,0.7235772357723578,0.6538268095526586,0.5271583108746501,0.509642550487941,0.12079058070432613,0.7810541517174588,0.6180534673764267
