,mean_nni,sdnn,rmssd,nni_50,lf,hf,lf_hf_ratio,ratio_sd2_sd1,sd2,sampen
0,0.4429069902502032,0.6308957399480465,0.5836331956396594,0.32539682539682535,0.3247600813179121,0.20115216361538635,0.5317773316948116,0.1323861269190404,0.6275840328640985,0.22680631136289758
1,0.4459828932983434,0.449900889036439,0.42408639600633313,0.38095238095238093,0.13976236207892828,0.11395370988647817,0.3056596322750152,0.13673507880613406,0.44743081404853746,0.4856930090990982
2,0.45788089713851066,0.43141718817577657,0.42569863708036604,0.25396825396825395,0.1645428741037382,0.11374905364058036,0.43163677198765665,0.12337159696885269,0.4285033586919177,0.4079016156420213
3,0.5207228336530625,0.8972797995277834,0.8824252255665949,0.7777777777777777,0.6737311945387116,0.46489769811152165,0.43847448942034445,0.10307630416662561,0.8907500529178588,0.6202175992000818
4,0.4287376212656504,0.6740535979822154,0.37521866746295235,0.5238095238095237,0.17074309915381417,0.10361158160405504,0.5459937498267393,0.3423607305074132,0.6765285282897727,0.10120615303883551
5,0.41509287111222837,0.6060067175029464,0.48187539604599305,0.5396825396825397,0.2647404920771919,0.18274211460743958,0.4355088952187243,0.18851210340855,0.6050195446763185,0.2219943054762311
6,0.49410549060712516,0.6226388859469842,0.32271304107420784,0.38095238095238093,0.08944970441267133,0.05411938156180866,0.5394341351315688,0.3782635702827981,0.6253789320417881,0.09451493669857094
7,0.4174320051028726,0.7100637442149677,0.3354390873154864,0.4841269841269841,0.13406438260821515,0.08281588985458141,0.5268845941411875,0.4283671102134907,0.7137265230132803,0.05902574139527189
8,0.4000540525213061,0.3650758727756719,0.06809443355644543,0.21428571428571427,0.011147306456543358,0.007013197640237015,0.4146687000080039,0.8989912266473669,0.3684309692650991,0.04403392720454537
9,0.3803889153626454,0.08720269297745145,0.003789524075100803,0.10317460317460317,0.0007240447017726787,0.0005798953332486786,0.1652323640193511,0.6890541923566721,0.08835541159106719,0.07322593112243347
10,0.535441875241325,0.45646818698551994,0.18365267481889913,0.3492063492063492,0.047469919631783056,0.03142871062671465,0.449126734882831,0.5051085349253029,0.4593910810289832,0.05864339139197569
11,0.4452256532139074,0.2723957338851131,0.22343000932738455,0.31746031746031744,0.03900532097114725,0.028172193549565273,0.3789025717106364,0.20390166721375946,0.2719312071688631,0.4420619281397716
12,0.35308166784725414,0.5654669949355575,0.45236933276329827,0.738095238095238,0.2295407343184488,0.16267872981346282,0.4132347700430811,0.18797148850043593,0.5644946762318571,0.29970366465700066
13,0.3951662091505359,0.3116187237528143,0.20342505724903026,0.2936507936507936,0.050889878671156935,0.035145665525318726,0.41777650212301115,0.28251790344250427,0.31225624815247466,0.07783553177522677
14,0.30533271456025934,0.4340371738421033,0.175591528090754,0.4285714285714285,0.058073724285595346,0.03817471536343613,0.4595299386003369,0.5002003598806216,0.436811851179829,0.060175794896343615
15,0.3922120104739022,0.25499160800685416,0.10128719098933428,0.26984126984126977,0.015520090847150898,0.012099326114366251,0.3044912449727351,0.4841946424452741,0.25672883378709,0.06721040875850198
16,0.5497385486546738,0.5193417191825931,0.19371929493536544,0.5238095238095237,0.04556055140120202,0.02836248692079047,0.49786236415259816,0.5530802934606486,0.5228597061682155,0.06921076002218951
17,0.4654498183085629,0.21242863922149896,0.08003247283796033,0.19047619047619047,0.010619904098826679,0.007286199819445867,0.3610157600625204,0.49484785020977573,0.21397376948529995,0.04842075016360434
18,0.5076905482479617,0.5415604277315131,0.20342444493897488,0.365079365079365,0.057040561855807914,0.03347148593153886,0.5558052237039135,0.5512242512270347,0.5452001388545775,0.04950372703854748
19,0.7141159701186215,0.8520234206403379,0.2551251765581258,0.619047619047619,0.07427920000832754,0.04206948502715651,0.596178863098588,0.7323954221023198,0.8584431675994971,0.0603318900481581
20,0.4502463419310134,0.7363876303179088,0.26319098857401424,0.6904761904761905,0.08766838478915684,0.06555237423727855,0.36519973929042765,0.5979293426021527,0.7414422440762428,0.06609995737625146
21,0.6264221584756366,0.8647827823909199,0.2900449345799444,0.6746031746031745,0.08398544016624013,0.055302448233783316,0.46484812735324327,0.6503839288443655,0.8709230994254994,0.0670438489696489
22,0.28933579289514877,0.8065608646153748,0.3124425183285892,0.7936507936507936,0.13058544990096735,0.09550352830909442,0.3851796547764215,0.5496821198699441,0.8117466886716793,0.08016802336062057
23,0.46089344828654877,0.7821408505116366,0.3729081052320171,0.7301587301587301,0.1469853290756856,0.0950613077206974,0.48709802846575595,0.42426185330724253,0.7861005144668218,0.11179290804162846
24,0.5139229770922988,0.6963261239811693,0.35153759947720586,0.6825396825396824,0.11734335365905005,0.08431168423257887,0.3981506369954482,0.39230141723561995,0.6995362826348361,0.11533170422080581
25,0.7969185103104988,0.9382141334201187,0.46388062616425063,0.6349206349206349,0.18493232711680277,0.10757043484481539,0.5871193759498472,0.405179430972462,0.9426485248972728,0.15036106823411843
26,0.5363229367402382,0.9977132489939161,0.679735174904804,0.5952380952380951,0.4770100754494515,0.26609520491949745,0.6363931677889438,0.2431864678386103,0.9986882288516866,0.19326055328011457
27,0.8473693815449901,0.9160972216393827,0.5418270191309318,0.5555555555555555,0.2517722190901838,0.14503146117716578,0.599655302238737,0.31048513639780784,0.9187732543303412,0.21417490275577444
28,0.5086253392286963,0.3897426604988107,0.3057234519237174,0.373015873015873,0.10730671272500467,0.07263520749408665,0.44519695571866996,0.20627400215801212,0.3893100164523251,0.21846351409176806
29,0.372544130505839,0.880935713810013,0.9619274644335358,0.7936507936507936,0.8701154434521912,0.6134603231152471,0.42091369973508425,0.07022941553483114,0.8713210238677563,0.6824454534410207
30,0.5837986547819609,0.9478532466443149,0.861269190434702,0.5476190476190476,0.5005937677070194,0.3619726737386943,0.39944836192856886,0.1290693057628597,0.9431187197760394,0.39751311330619643
31,0.4139685992407216,0.6296322660573386,0.6140806768963227,0.5158730158730158,0.4605324873134219,0.2723922354224757,0.5773638333096456,0.11462865147652102,0.6253711259317193,0.46520438557743543
32,0.6749015374740976,0.6982259116945472,0.6825922551152219,0.3492063492063492,0.4027641442077334,0.16585565743735742,1.0,0.11103016349978162,0.6933949362601467,0.31160356848002946
33,0.5379292502340043,0.5293832867906213,0.44622875739694556,0.47619047619047616,0.18771666114754793,0.12569421195985117,0.45919879647637424,0.1703499593769734,0.5278928031139289,0.2810488004740402
34,0.5261137010543855,0.11567198405076629,0.06558170980487957,0.1111111111111111,0.006948243804084225,0.006844275845818974,0.17053896700097387,0.3483333214907688,0.11621602980686213,0.25210881561839193
35,0.4574970337362738,0.07734870267673838,0.04318267432518133,0.09523809523809523,0.00506695535275623,0.004007604123212773,0.2516807102651227,0.3555841806041924,0.07778164499788798,0.27251159327116137
36,0.5462399182093349,0.09718012101352488,0.03847283890608831,0.1111111111111111,0.00377448726788465,0.003438060322286956,0.18922893815632696,0.43631845585209605,0.09795670182834323,0.20641474871195736
37,0.5540666097046174,0.6174467400706065,0.21052714760265528,0.39682539682539675,0.04673681832983936,0.03191090909119292,0.42473732993161556,0.6177389492164858,0.6218543223020683,0.06502347429506396
38,0.5089562684994251,0.4585721938490763,0.19059897101237533,0.30952380952380953,0.060016515474192615,0.035513810831583385,0.54987156879357,0.48811271427806646,0.4614159976790755,0.055876745022832575
39,0.4215015169746248,0.11104748469162246,0.0,0.11904761904761904,0.0014625014657192494,0.000961443429661181,0.22416225893480485,0.8353370448043768,0.11249378643200325,0.06387765342875264
40,0.449014409370031,0.6518310796183315,0.45876777559975335,0.6904761904761905,0.24692445327789528,0.16222661417768836,0.4772588482925845,0.23581819393567316,0.6522068058306004,0.2050010731659365
41,0.5443745678219982,0.7223556994104944,0.38811856583815335,0.2936507936507936,0.13955130212840428,0.08234374301819289,0.5699001832119099,0.35991150098649993,0.7252570069281088,0.11883796377987098
42,0.6083934170601641,0.6948849153204754,0.20000648408570493,0.40476190476190477,0.047750842697679846,0.02996889361388534,0.492552900391596,0.7420447275685162,0.7002621527409743,0.06802171069200963
43,0.45460450670360664,0.7304570469054964,0.34344369774774713,0.4126984126984127,0.12391798334556822,0.08706320919358418,0.4163348272013789,0.43131271054994824,0.7342467426063262,0.07378311010036263
44,0.5348172094026777,0.8114093959169782,0.651756932364981,0.5555555555555555,0.39859741540426086,0.23768172494318235,0.5688102779932507,0.17787408510523922,0.8098078941439102,0.4713779646918014
45,0.7316061783762411,0.7158774412467706,0.7120245619274682,0.5396825396825397,0.4539184665000955,0.22530799324327366,0.7640561754679844,0.10469860961403643,0.7105256522074564,0.47162966592527555
46,0.7752506763300444,0.37805149325738185,0.3771023569155851,0.3412698412698413,0.11195903870511677,0.06820313554160652,0.5370749364567571,0.12513943262488536,0.37543318769756306,0.418761008391679
47,0.760836868749101,0.9220460700434222,0.7532135672233048,0.4365079365079365,0.49911751375637187,0.24923299347488004,0.7577852870211461,0.1689476271999406,0.9198505938975493,0.37117803360363044
48,0.3235920528337417,0.7329739220111999,0.8361445154766866,0.6904761904761905,0.5933633032458887,0.4688171337354816,0.33155755143520543,0.061624969341312674,0.7238301890641085,0.5249630753585377
49,0.6178058593207614,0.6830291142333961,0.6192551652916131,0.5158730158730158,0.34970896321302175,0.2139951318919173,0.543487599836388,0.1372676186772212,0.6797788736464183,0.48230626817067057
50,0.517867977511981,0.3051099927719222,0.31994912722846547,0.1746031746031746,0.11619606279916932,0.049968621271311416,0.9119638281828739,0.11923398712634209,0.30261317428268675,0.3936661969325209
51,0.6907109084131382,0.5242371015753297,0.4889414125741631,0.26190476190476186,0.20892047504049083,0.09512290421008035,0.8576308927343037,0.13509721255621127,0.5214404844773258,0.26647991434681795
52,0.6577165147845465,0.3383941818127559,0.3295168550883614,0.26190476190476186,0.09797875828727462,0.05069490617434761,0.6939486557086114,0.13745681407781152,0.3363322126283864,0.48034709694746197
53,0.6796743786834072,0.3481522534452092,0.3709873585178773,0.23809523809523805,0.13993244191792067,0.0660695446145611,0.804894621141671,0.10821145809555754,0.34504803567579795,0.3412416858272361
54,0.6118938132575458,0.20851278193194367,0.3223274081218469,0.23015873015873015,0.10573611286517506,0.05168988624935484,0.7573819549410967,0.03669574726479269,0.20340384108570814,0.49066097037633627
55,0.6901684429161714,0.21565721983052855,0.23588645231365196,0.1984126984126984,0.06299562074905816,0.04203547660216674,0.44904022417797856,0.12562600271173419,0.21373645559662402,0.5205463385598365
56,0.6725974232029213,0.4392526362924484,0.4768878408350191,0.3571428571428571,0.17014108449128743,0.11055007556910285,0.48435812435622844,0.09284244925556662,0.4349000218089343,0.45217775678248473
57,0.7749907607903839,0.705458884061735,0.6193742945840635,0.5158730158730158,0.36954372672333796,0.20370394102717457,0.6472935189572047,0.14780954169333865,0.7026683242140218,0.4390953236689825
58,0.6705882356549093,0.39624628904598735,0.39957819243924364,0.2857142857142857,0.14815151089623607,0.07692146106639888,0.6999002614328982,0.1197175611264703,0.39334588506947654,0.4492741407966689
59,0.5022159311394347,0.25304229646165005,0.25048124828975515,0.24603174603174602,0.0666896617040303,0.0476024551957757,0.3970854208992091,0.1463364677680824,0.2514852451460032,0.5061368593169023
60,0.5811310693834735,0.20269524193348903,0.20843477728284737,0.1111111111111111,0.052118286861626,0.030999940618345514,0.5409589384149012,0.14729688877863123,0.20130293324660226,0.41749197676644145
61,0.677152332092456,0.6367635096698411,0.5952184931342853,0.46825396825396814,0.33121490028616785,0.1584639262285918,0.8044571399808234,0.12854868751358,0.6332329832894161,0.41833384559157694
62,0.5481613284136493,0.2106741808611104,0.24774486769222215,0.12698412698412698,0.07461676455592597,0.049981600622241204,0.44888661809463254,0.1066017183140065,0.20827509417687667,0.39162107492263665
63,0.6144517308616906,0.060024423823662715,0.06768545858567229,0.07142857142857142,0.005378924807793585,0.005858676569088943,0.1296556814744409,0.21345828150315033,0.05966543098668314,0.5793287623971615
64,0.6656714448684307,0.5835637804734952,0.544744128005156,0.38095238095238093,0.19068228848669272,0.11366333773542067,0.5639134217951633,0.13162079774614288,0.5803929540041125,0.3636912185810328
65,0.654567472659394,0.4926518460067657,0.41538959941295056,0.32539682539682535,0.15801826836094338,0.09264132657694575,0.5776756954019091,0.17229807035795175,0.49128078197480685,0.37963495268584746
66,0.6233396026008309,0.7913554263794845,0.7925035423427239,0.492063492063492,0.565204738284624,0.30832147592581255,0.6606280150278769,0.09996082484963975,0.7852057649474038,0.3817111965010506
67,0.6759342796661936,0.6556056596123412,0.5501769115147688,0.5,0.27716468433482866,0.15269846996635794,0.6456467594054285,0.1660997463138717,0.6537433081825481,0.4926577174859179
68,0.7708714928868006,0.6328057784436669,0.6229937084357471,0.47619047619047616,0.36084726319917937,0.18270146958746042,0.7394714933215103,0.1114034059050073,0.6283398358939332,0.45307955470471944
69,0.7378853799019538,0.5721984579809489,0.44572757022488774,0.23809523809523805,0.17289800415422413,0.10080737708563084,0.584073905670017,0.1976545158242406,0.5715118893216178,0.37618225252232573
70,0.5820830644372434,0.624863502653655,0.624763591897172,0.5079365079365079,0.3797254146388979,0.19304309932861968,0.7353081542500419,0.10674050069151764,0.6201596060321568,0.3901025061782867
71,0.8629026302171872,0.8503082557267111,0.5984848623679228,0.40476190476190477,0.2668488023706286,0.13109311614791183,0.7707911773431757,0.23097939643914595,0.8507220647352849,0.2927154120671291
72,0.5320797999975815,0.4050517201396884,0.37266801541599676,0.365079365079365,0.15541062064818545,0.08744636686307612,0.6175956869066379,0.1486718048139734,0.40313001433786444,0.46998782458757404
73,0.5968008392950517,0.11467185288542359,0.1430608028084595,0.15079365079365079,0.016080591361342062,0.015957152359357688,0.1743355035040281,0.13499287260259424,0.11333458799413199,0.5114451563234853
74,0.681001495737227,0.32867896469870317,0.32732446675921745,0.2936507936507936,0.11453504474341833,0.0628846147044587,0.6368533356096047,0.13165269470015123,0.3264751357469156,0.4257667767598075
75,0.6842112397345104,0.26938081905554273,0.32489305750964553,0.16666666666666666,0.06999114919220989,0.04727019937385695,0.4411868042235955,0.08516938894336717,0.2658796740159944,0.4407112519852987
76,0.6491026318280573,0.4191766139228851,0.5201697361949533,0.365079365079365,0.24639924509620184,0.1259064741715846,0.7251886974618298,0.056252610109904566,0.41278421168799295,0.49593224180958606
77,0.6584971220278122,0.4279671898442896,0.2958223945921762,0.2936507936507936,0.09524792472160196,0.056292324572749006,0.5621057779436092,0.2520261595928111,0.42840632178657245,0.40078196290022594
78,0.7684750436387862,0.6421476978873154,0.5622091027331035,0.38095238095238093,0.24714212280585252,0.12793952838384676,0.7108679735534644,0.15121149898706893,0.6396866589842719,0.34500142906201614
79,0.5298654774915614,0.3104280606344834,0.3574398361369649,0.26190476190476186,0.12450290494578828,0.06277430071407523,0.7278649241104045,0.09082879587289666,0.3068611921618463,0.5152771294090133
80,0.5632436956856834,0.6222982367421275,0.6074612031110028,0.4285714285714285,0.334471955211355,0.17324618092100585,0.713346355850228,0.11467687500503165,0.6180762949551118,0.39039264918884364
81,0.7303587789572923,0.6613969802005861,0.7023295427376784,0.4841269841269841,0.4023568519994154,0.2397726209473425,0.5694639353129773,0.08602291216974373,0.6550422778770655,0.4572536883118303
82,0.5686569802026396,0.7016957132201108,0.7131841942047402,0.5396825396825397,0.4929625530212268,0.32877329922279697,0.46692501261452185,0.09821900072865414,0.6959706687202547,0.5028476209416362
83,0.6500949587649871,0.4932477945845952,0.36697843310791983,0.23809523809523805,0.1515305638038296,0.08726771005730616,0.5943560307656743,0.21930096430865814,0.4931154028455439,0.3533385808003912
84,0.6434942381880291,0.31139780699868275,0.3440181495146986,0.22222222222222224,0.12057690370023678,0.0539801265262812,0.8637372016166025,0.1026851672436393,0.308291688836918,0.39737600865200284
85,0.6609554877811519,0.42236615477462014,0.4497832182880319,0.3571428571428571,0.2064338353198863,0.10627345026457251,0.7146212787536432,0.10023430554315893,0.41848994556796504,0.4478654517124326
86,0.44866857859969755,0.6768565263156437,0.6136310220946172,0.31746031746031744,0.3959080062557897,0.21257086528327726,0.6755519114610462,0.1374890118742526,0.6736387878275932,0.3339092577463578
87,0.7067362608927406,0.13710733919785217,0.17749206814652346,0.21428571428571427,0.02562123884918434,0.02222888392629559,0.2519603983432626,0.1112296042120382,0.13522124249278644,0.5437721418456742
88,0.7724783307523886,0.3125405991966118,0.39624705383218434,0.22222222222222224,0.16104773471260173,0.07315596269439072,0.854623521070357,0.06371985194063923,0.3076864040869439,0.4330758402966525
89,0.710236125120494,0.5306825424517269,0.3802953395188278,0.26190476190476186,0.1459452424723749,0.08090680415206335,0.6315569962593341,0.23244442908331492,0.5308667674058076,0.34991611282398516
90,0.6786905061264057,0.16605101539111855,0.22825955393014558,0.26984126984126977,0.04990566762351015,0.040256058515887976,0.30591371229866376,0.08139779798357788,0.16320526943091823,0.5696360174725805
91,0.35136533892137445,0.6708320501287836,0.7381308952919422,0.7460317460317459,0.6175295568553673,0.4765986360325881,0.3490795137590124,0.07477736869416768,0.6634962328786692,0.6347464854870265
92,0.3401657232359572,0.7385132288130147,0.8874869025320797,0.8253968253968254,0.7351090879681534,0.6274841916952146,0.2769189293041188,0.046469177485573165,0.7276177598523497,0.6810805543295079
93,0.5309555167687212,0.3674376658310693,0.47574513121158424,0.365079365079365,0.18079385706402054,0.10861731318561764,0.5559600726127891,0.050471163199661384,0.36121485626663596,0.483811403620926
94,0.663996588832529,0.5894348108312435,0.5536098576345391,0.3492063492063492,0.26509309550317234,0.15010019391913673,0.6172831504747998,0.1292356409166603,0.5861267287599116,0.3590014477463783
95,0.6268992282624126,0.3519493787838708,0.367325142723817,0.2777777777777778,0.14592403323567563,0.07676085600520298,0.6857103738197396,0.11405131711555572,0.34904678272437856,0.4694406306091146
96,0.5759266474516989,0.6228285964046267,0.625546662601947,0.47619047619047616,0.3356260121936484,0.22259731106887262,0.4704895498563782,0.10535803394703996,0.6180513672102507,0.4587855616959807
97,0.5729715392500807,0.3900822457133354,0.3633170725542364,0.09523809523809523,0.1429376150821383,0.06421481264341772,0.8648833555981097,0.14602652943502092,0.38811993898836983,0.26817260964363665
98,0.5489230761477442,0.22280342339733294,0.26755474565707765,0.18253968253968253,0.1018424995361901,0.0616986182651941,0.5405787060660707,0.0973586112458405,0.22005533041405245,0.4447878587115842
99,0.7809866721766983,0.6084365106678866,0.5882960125469059,0.365079365079365,0.3058328862204263,0.15416680060827467,0.7428763796960507,0.11848190221096805,0.6044933297735992,0.32814207999727524
100,0.8319913376881816,0.5745185883039409,0.5526110972362228,0.4285714285714285,0.24964115627410197,0.12354524890084423,0.7614556814319244,0.12191634583633482,0.5709102217972495,0.4103748800788279
101,0.42361607423469394,0.8842421436075304,0.8551634822227232,0.8412698412698412,0.7003155135246965,0.479818105526571,0.44455418156902954,0.10897850843474782,0.8782733702041771,0.7489666853158043
102,0.7289284966278451,0.933508780783661,0.8004889907974307,0.6349206349206349,0.5426991052007197,0.29772809255148136,0.6544470884624245,0.15031909824771061,0.9302335070389999,0.5508848367801222
103,0.6146542420330057,0.055258296242997995,0.09887571789283273,0.12698412698412698,0.010336744096305268,0.010402455178857585,0.16470187481945114,0.12164982952589376,0.05395385707669814,0.6009834379673679
104,0.7807584759103618,0.712486469107701,0.6846617116679204,0.4444444444444444,0.39148260194219114,0.20889235241741835,0.6821513739231635,0.11621912347314967,0.7079143456630906,0.32057023036879867
105,0.6385093950649419,0.2763350909388844,0.3716673195761662,0.23015873015873015,0.1388430179982617,0.0815093010222068,0.5746728839619812,0.05453218956037964,0.27136378058906707,0.38935196045352816
106,0.5573304221303732,0.30231394218931656,0.35823808926243783,0.4126984126984127,0.11960298939452604,0.07112436524501198,0.5603219424429104,0.08400826801944544,0.29851778664637113,0.5585829790298663
107,0.589834191611116,0.6048643456830771,0.6645179604427457,0.5793650793650793,0.41949867569316757,0.2590143207909629,0.5359068530247793,0.07825258263339102,0.5983559129532656,0.5250133055427804
108,0.6267138981567517,0.47552867005046984,0.5910141123604671,0.2936507936507936,0.2981812217871964,0.20109822492971183,0.455600009862338,0.05090945599097929,0.46811791684630777,0.3209489393383215
109,0.674708868225498,0.6620644829213128,0.45674379666178233,0.30952380952380953,0.17418776363358066,0.10820273402642742,0.5246560009979804,0.2437403176892422,0.6626488455924527,0.33021535452899675
110,0.6980531495708242,0.21458487710529323,0.2814925366081664,0.21428571428571427,0.09569112360267477,0.05926973868257395,0.5196197144157804,0.07596505973426432,0.2111625384279051,0.4854238062320163
111,0.5730084685454644,0.4845441282444187,0.5099786488191653,0.5238095238095237,0.27824863062046046,0.1771908302472074,0.5055759886218192,0.09868045016407806,0.480205962754085,0.4902811882274092
112,0.5471890075340715,0.37440719377305265,0.4179437894494623,0.4444444444444444,0.1821896255046144,0.11318515690251986,0.5249768243864483,0.0911145352278917,0.3704109851860249,0.5097164257743242
113,0.5883168794128546,0.3096819217682503,0.36804724598041777,0.31746031746031744,0.13141435489971237,0.06611104007482924,0.7315946135906617,0.08197089169143695,0.30574001998979333,0.5369010711565102
114,0.6355090485411654,0.6567055065003422,0.6662006290472148,0.4126984126984127,0.3734230705160215,0.23208825886873746,0.5292737801094414,0.10063134801975115,0.6514256918136658,0.3534396199903287
115,0.6074799199840539,0.34460756543504023,0.3083566720120869,0.21428571428571427,0.11937461925975562,0.06957548011303546,0.5792501034454058,0.1643731099262582,0.3432679421727365,0.38356187423593086
116,0.7139474383814506,0.4518581042801385,0.4102955961928841,0.3412698412698413,0.17764751487414465,0.10156705554201528,0.6035352006660997,0.1491703228187385,0.4498245648450484,0.3779020389205006
117,0.5312911807808802,0.7180413199054985,0.6396809171971318,0.5476190476190476,0.37504656725059415,0.20625863400558214,0.6498112112602146,0.14221767678308272,0.7149320270553761,0.4918819639805976
118,0.5230652313215485,0.7675820718725422,0.7848396923253401,0.5555555555555555,0.6016131333169182,0.32604050295526377,0.6678735115707515,0.09400499672307988,0.7611104718874178,0.42319697315224925
119,0.5432644802940043,0.3086586338699673,0.3692291676090898,0.26190476190476186,0.1429325409363815,0.08440544910008814,0.5694772113643443,0.08031411226487056,0.3046503883319592,0.39651556001949684
120,0.6127716751290015,0.3527424298428072,0.3368856971647837,0.25396825396825395,0.09431366285906229,0.05352605970323079,0.6001655671374151,0.1419161235321616,0.3507672949565599,0.466959645142055
121,0.6814811601186499,0.4768818153369657,0.5425597913378813,0.3015873015873015,0.23209603138583051,0.12543898816567847,0.6639080111750371,0.07582300337879394,0.4712583358562322,0.3522797124497854
122,0.6748320586987131,0.27315467185188225,0.2260628716716509,0.26190476190476186,0.04083273807738759,0.034043676545845274,0.28206463839401225,0.2004963962857091,0.2726338562973884,0.5209049745354538
123,0.5580920924968891,0.32455800280572855,0.4665503715501772,0.46825396825396814,0.20918868842727864,0.15258449649600261,0.38987875375015485,0.02931800450589056,0.31737065458562747,0.5433410882520103
124,0.6400768527573364,0.6725689406237086,0.5764776732660661,0.40476190476190477,0.2851028531484726,0.18308936929117767,0.4981580072458098,0.15767370591216,0.6703180396725873,0.33503758423706925
125,0.6752077634788813,0.2807027371447082,0.3344906050725517,0.2857142857142857,0.11761794407764528,0.056398321367947944,0.7822790477455797,0.08630377457369448,0.2771631395122066,0.5092425005522421
126,0.6656598144048513,0.41665947231229694,0.45409869478790144,0.30952380952380953,0.19191425108063248,0.10189058061052077,0.680351444302215,0.09376725080714948,0.4125052936320107,0.37309807700373526
127,0.6875724584146969,0.7765575033906523,0.550555857051085,0.4444444444444444,0.2785223528510592,0.18103112958729564,0.4873318904109067,0.2293476001345952,0.7768613400896007,0.38640933708481967
128,0.590438020223701,0.4093846342542874,0.5209133403044829,0.6031746031746031,0.27199870089098305,0.1841804250144426,0.45176937473224726,0.05040214142710564,0.4026819904761393,0.6333736538174263
129,0.5959085525729968,0.5705653498506033,0.5623329365580824,0.3571428571428571,0.26469336385490927,0.12230943259795056,0.8435974742809167,0.1141163884958955,0.5665704216084737,0.44885666288637516
130,0.7048590953665859,0.4852870746846927,0.45134214406435513,0.373015873015873,0.19087419948826892,0.09710332036451239,0.7265088317643602,0.13857823725118756,0.48276658106475656,0.4197539529524759
131,0.6756803067173669,0.07471846139877236,0.12543340584191162,0.15873015873015872,0.011997644796712996,0.011812038063382825,0.1760759866929043,0.1038626607606396,0.07303010235235663,0.5603189544057802
132,0.6356400810561285,0.20639380764868442,0.23641639119849023,0.1349206349206349,0.07470049815590711,0.0471438728007794,0.49874101641537677,0.11520258950808349,0.20425097593927716,0.5020829154378738
133,0.6962125889739474,0.17924668418125866,0.20392308421076177,0.1984126984126984,0.044776929649371536,0.029422462338456103,0.45359897914290886,0.12623074742240153,0.17749178740293925,0.5099340359566001
134,0.637962773573328,0.4960335164366836,0.4760184036908309,0.365079365079365,0.19686241078582684,0.12418307928330707,0.5117845278411011,0.12738319511111562,0.49301473783820926,0.40906242077760235
135,0.5402549687167262,0.25877014227408124,0.3625647314121703,0.365079365079365,0.13813590647489374,0.08936383660806481,0.4862261824696779,0.04775861590018532,0.25363167283458077,0.5498619025146256
136,0.6879956938244427,0.9999999999999999,1.0,0.6746031746031745,0.8332791103636177,0.42619516898927357,0.7329176139003077,0.09534396366863784,0.9921201705783192,0.5225876602540294
137,0.6773590503766522,0.8072503950222385,0.776478758202558,0.5,0.4944500677681153,0.2873856263532739,0.5948977291193707,0.11290557181056599,0.8019837352191844,0.4334704566921177
138,0.699942775150109,0.6834778921001764,0.7309597817901421,0.492063492063492,0.4132611177723348,0.2089679527617996,0.7420560803056417,0.08298787863702961,0.6767197156401356,0.4569379862490921
139,0.7963503337739952,0.9217469770560208,0.927759223080963,0.5873015873015872,0.7450518909696398,0.34652083896949865,0.8454014242709968,0.09488369282705506,0.9143344773214787,0.46841004361591754
140,0.5792215076192564,0.4973574490149495,0.5772368123600856,0.31746031746031744,0.23837728525348412,0.1408090713302642,0.5746342274482743,0.06858596468423861,0.4910652959872388,0.3866047265887152
141,0.632601873450293,0.19826854742782218,0.1681318602058886,0.2063492063492063,0.01632226193653127,0.016026338281616925,0.17975273107431206,0.20784438773814057,0.1978670528814443,0.49075492510914265
142,0.5823450356643107,0.16741596483228077,0.16837089114721324,0.23809523809523805,0.030546346923219236,0.02518782794067923,0.2853633666335628,0.1656322267191247,0.16643412607718716,0.5304164499174965
143,0.7219174354320252,0.35513081216816844,0.3843548024489962,0.25396825396825395,0.13215373274671888,0.06263261407807928,0.7989830023144253,0.10263457019416061,0.3517645690594297,0.4239660135294783
144,0.6665446141382012,0.6464396732915921,0.6347505044293976,0.33333333333333326,0.39710392092385455,0.2195142273224462,0.6448162086655926,0.11168801605867451,0.6419198460617567,0.280299602669631
145,0.6478307987014351,0.6821461605753127,0.6684553676460747,0.46825396825396814,0.4436112052008314,0.25589276987882653,0.6019538527044639,0.110855153149225,0.6773883600653937,0.4375925266801392
146,0.48483695734342325,0.21700691582740972,0.1421358059694839,0.12698412698412698,0.018332931273839077,0.015956314869699267,0.24523557708190907,0.2901094428023775,0.21749495776694266,0.5055405841193824
147,0.5868762309159692,0.3193031588643206,0.26879005159008823,0.21428571428571427,0.07230376589601158,0.04490270070378233,0.5119821767972617,0.18842970487616717,0.31853678769336796,0.4265629472546202
148,0.7036151599821847,0.40427578822595767,0.39873979758333367,0.2857142857142857,0.1583012554817281,0.0815892203581779,0.7090557440972676,0.12594954486385246,0.401577149464046,0.373065154078425
149,0.6194852401303845,0.36088023382256595,0.38676658817851695,0.2777777777777778,0.1694841414930232,0.11566416136236377,0.4425004951518042,0.10488761434787175,0.3575728068781988,0.3696451769105366
150,0.6530183848667994,0.5081248877355738,0.5535632014736639,0.38888888888888884,0.28757541871129727,0.14177294476016364,0.7676436541859104,0.0864639446061845,0.5029262164892818,0.43307845492800284
151,0.6308964581111733,0.24849063810444982,0.229355550746966,0.31746031746031744,0.04792509907728114,0.032460278107207016,0.4315210036549009,0.16914992364934245,0.24742868191393524,0.6477231098826072
152,0.61013000914351,0.2601485977544006,0.24833032124011517,0.26190476190476186,0.052711609223085674,0.04133826437744073,0.3256966926264025,0.15619320344758014,0.2587955221398556,0.44027707806210953
153,0.5432883592647169,0.5187430171381106,0.6196523176393466,0.33333333333333326,0.2929486019626353,0.20772049402005743,0.41381670493267025,0.05887623278767745,0.5115100713272926,0.31081935872010763
154,0.6437896667097065,0.10303659015458178,0.1698139438863019,0.1746031746031746,0.029684056248511576,0.021709882169631167,0.3636968876707429,0.07698420743292306,0.10057257599301672,0.5073955735705865
155,0.5857453500817902,0.5909466644411696,0.5509844052565355,0.4444444444444444,0.3067317596324719,0.16794854199511103,0.6529277867676899,0.1315571259573784,0.5877448080450471,0.3913997413622362
156,0.47301644599175896,0.6059574183089012,0.7358490104268887,0.6428571428571428,0.46243824392765137,0.27475230952391916,0.5729986507598206,0.049136691360188944,0.5969025357421609,0.5313668552559542
157,0.5873749837731539,0.3110143057321456,0.44207402762024206,0.30952380952380953,0.19659584785810302,0.10532993958044788,0.671061855324109,0.0342561680608236,0.30437802546660303,0.36995135929689327
158,0.5991975445577999,0.8999651071144114,0.9154324114954279,0.6587301587301586,0.7930265635687206,0.4617849043467699,0.5946461602033228,0.09200137472121012,0.8924285733128575,0.4495065095584125
159,0.428426458144449,0.7343908709062972,0.8479646260878513,0.6349206349206349,0.8087846218481387,0.4669452275695676,0.6032795993906761,0.058036520751831744,0.7248549746966667,0.4494960575644173
160,0.5472093194200087,0.6889687754980567,0.6979720975181758,0.45238095238095233,0.48470566225517525,0.266593746252929,0.6512035433155616,0.0997619984493523,0.6834324136069837,0.3964280938437865
161,0.45075648349639375,0.5580417559902504,0.6315207548691254,0.5952380952380951,0.4427153541967598,0.261842420172576,0.5772326952264435,0.07195356770738887,0.5514523632201119,0.5922608467474881
162,0.49402333329220505,0.5337638792281305,0.5675280621308603,0.5317460317460316,0.3225968078393689,0.2083543711798895,0.49366603468943865,0.09220964041265095,0.5287358306427111,0.527810759236808
163,0.45779134509127273,0.49274582803476097,0.5875488082130645,0.4126984126984127,0.2697347471828488,0.14837607105537748,0.6470023868514043,0.061149226758927644,0.4859532087234387,0.37337065699485245
164,0.4014877340957692,0.43604630272410316,0.45984882863989407,0.4285714285714285,0.2450171574654928,0.14530865919508662,0.571018824704725,0.10198487424233915,0.4321711992076577,0.48252113322173507
165,0.4023152855878953,0.5348079327829622,0.6200903548861175,0.5,0.37747732564675335,0.24865154517002086,0.4768964639949192,0.06632069140516028,0.5280013787581914,0.4893614842149939
166,0.4750148279050661,0.35184261259206223,0.40808334197457324,0.25396825396825395,0.16651015605861474,0.10530068953675462,0.5080833235563273,0.08278270829171097,0.3476132114675537,0.34843827978443226
167,0.30746087678653233,0.48919093280229065,0.5575194007351266,0.4365079365079365,0.4174508655425666,0.24727987192903358,0.5754619125441633,0.07441744845570514,0.4833715539261193,0.4489872453733099
168,0.6488731977693047,0.6263943206316408,0.43187566957265167,0.3571428571428571,0.17093736066427717,0.10782064713735647,0.5106472005792391,0.2452131456547686,0.6269694412684024,0.16282948792239313
169,0.6430580599193667,0.5513767765384634,0.36949774720544193,0.5158730158730158,0.12514228654970885,0.07934759070364418,0.5027162568055275,0.2596528804181245,0.5521467623957597,0.21911216948206363
170,0.4630485646489224,0.6022817507438422,0.44442583040926464,0.619047619047619,0.19175742277693278,0.13043609785649488,0.44606024713136944,0.2179774974389191,0.6021604578271589,0.21859991218854574
171,0.5586295235971792,0.6159797886177031,0.4445008283545382,0.4444444444444444,0.20921496433229958,0.12784229759027785,0.5414277006335981,0.22655798617556405,0.6160897353673506,0.18687139299291458
172,0.5933105628664541,0.7472022470655754,0.40512027822069413,0.3015873015873015,0.1744267232099579,0.09439939070045343,0.6588543917261853,0.35518777530473056,0.7501291274491003,0.09703316621413087
173,0.5970275599200248,0.32404553108986994,0.2784567904001297,0.40476190476190477,0.08712347903941951,0.050493416943140385,0.5784795796270323,0.18078164792713042,0.32311632356801984,0.24239046846891368
174,0.7064921411177194,0.6465732096082402,0.33589283722583924,0.373015873015873,0.11399065158338433,0.0642047310889682,0.6114387298696189,0.37704909279109944,0.6493967775168205,0.14226557164824014
175,0.6104921263371299,0.6931358680455165,0.4603545639663472,0.5555555555555555,0.19736406291778288,0.1108443111518168,0.6225629826167549,0.2596266582395771,0.6941434787215168,0.22198945669285852
176,0.5939883647174276,0.6480121403547763,0.4064537825431256,0.47619047619047616,0.15542692853497267,0.09462769608603819,0.5419282211573777,0.28615237108033065,0.649482612467937,0.17580921202464211
177,0.630090373537979,0.6460604161504988,0.4286764211993025,0.4285714285714285,0.18232921231274157,0.11134203618888548,0.5407915272549102,0.2611700203596755,0.6470225028752481,0.17145278349614507
178,0.4494372777486455,0.588748301131392,0.4344951671349555,0.5317460317460316,0.21618067062304275,0.1409452912220872,0.4831416549310305,0.2184436584341547,0.5886340648040831,0.20415376219414808
179,0.40025112604633195,0.2697931076402174,0.2157925070613897,0.1984126984126984,0.06036726359098694,0.03777676441636486,0.5013045736067523,0.21285587505140685,0.2694697395560955,0.19862345264708778
180,0.4964662386716612,0.2464640204692065,0.20574379899520495,0.16666666666666666,0.04893652619983483,0.030645048032242352,0.4951109429487576,0.20229475199114288,0.24597861350372968,0.2219023914926741
181,0.7950485658422417,0.9957011940550488,0.5148723997239827,0.4365079365079365,0.22318403329463998,0.11519246943067317,0.7128707917184929,0.3803234828226878,1.0,0.1374760521483477
182,0.5751127490978121,0.5491525587647027,0.3005926983786525,0.4206349206349206,0.10337309243528449,0.06682760448328745,0.48340760044077596,0.3512400836706151,0.5512958521683322,0.2002263942128269
183,0.4492305400903642,0.3636581032746793,0.3427940161737165,0.31746031746031744,0.13623593933129272,0.08417234579495567,0.5269195067951198,0.14508458657241158,0.361744483897647,0.20212574189422652
184,0.43717562002262067,0.5540292253331736,0.3777677666843124,0.3571428571428571,0.15547463771925052,0.088766660053098,0.6031834031234553,0.25224131017903295,0.5546574664442228,0.14904863123198275
185,0.45781612282596007,0.25439278342672034,0.16319653728561925,0.33333333333333326,0.03483787085855243,0.025495091981368366,0.3670833690712159,0.2938160133761373,0.255006536113133,0.24370547258737804
186,0.6737244367390862,0.7423348289065178,0.5237988055033258,0.45238095238095233,0.25928479084280437,0.13767755552502162,0.6838660050665313,0.23234268732704694,0.7426996501875494,0.17779862304847519
187,0.5602419769590665,0.5027166348345948,0.3687292256264483,0.46031746031746024,0.13422044722334486,0.08111012265529312,0.5470294288085571,0.22462939486667105,0.5027080123156444,0.2228064567748296
188,0.5168786555889502,0.3377775319686874,0.2342887675065501,0.23015873015873015,0.055335201839958464,0.03705268690068376,0.44366338774131037,0.25693960838265506,0.3381520610974006,0.18464161395501208
189,0.4747797534592888,0.5795421240660804,0.41417134177701187,0.373015873015873,0.18685092054061198,0.1140042140872799,0.5418299880753878,0.231840280901211,0.57975446436609,0.16339848500751028
190,0.5199429284230566,0.5071386481791403,0.3634268449267349,0.45238095238095233,0.13797966700350422,0.0906525990647694,0.4728833777933678,0.23369671145691234,0.5073289029471443,0.2176800171452553
191,0.43750165594404034,0.5446019203119609,0.3677535249005496,0.47619047619047616,0.14278185380276606,0.10585526487732289,0.3752850351421479,0.25665838872957747,0.5453030005861873,0.201659322348054
192,0.5801946351737195,0.523078785412867,0.3621596710837325,0.5873015873015872,0.12797077105374208,0.08612748670721804,0.4517743931644134,0.24704733575322713,0.5235598247268015,0.25709917273498945
193,0.5368447258664057,0.4286079769079739,0.316265508757136,0.26984126984126977,0.1227128862463025,0.07680363063021343,0.5139865254735905,0.22646647321266433,0.42859009684659266,0.15269587026206297
194,0.39671329407316813,0.38538148831045904,0.2944405109575597,0.2936507936507936,0.10064840510782394,0.06241412231028361,0.5193892840262282,0.21641161074541276,0.3851488538593766,0.18111072380243734
195,0.37472967215103337,0.47055420824073835,0.36823231574252535,0.45238095238095233,0.1695649584982641,0.1182222775819361,0.424876133980197,0.2013766743659205,0.4699995965839373,0.1832766484927095
196,0.401157176141262,0.29714126569969734,0.2498880097549646,0.23015873015873015,0.09155048134883706,0.05726114945192227,0.5102563951616443,0.19168066158312763,0.2964536290544248,0.17727462504836797
197,0.4232602193656263,0.2252688989392132,0.20595770072121,0.1746031746031746,0.04265970867008701,0.02808699782636844,0.4507141900661878,0.17728863935373645,0.224390415628269,0.2075474739768615
198,0.49269622927199674,0.33420595039878653,0.22146696722931608,0.2063492063492063,0.05970519200969512,0.03788330137239337,0.48934608394433926,0.2749174376557121,0.33480450090834424,0.18947741276089292
199,0.6187739406703381,0.677100423271666,0.4606119652098519,0.3492063492063492,0.19401212098316475,0.11566038344687479,0.5639835337476897,0.24956752989721714,0.6778459358385064,0.1255731430504735
200,0.7871692448972727,0.5363838118668824,0.1651804745348873,0.21428571428571427,0.032690945504229345,0.01873079544765886,0.5536198395417797,0.6703358639698814,0.540466001554857,0.13772029196071192
201,0.6295767232010887,0.7338429593007342,0.4735567146383941,0.4365079365079365,0.24967521335727857,0.15542819879595218,0.5255593878750733,0.2716312960721189,0.7352002543983546,0.16067454972461787
202,0.5838615689638065,0.4996674296323912,0.3172865484477071,0.3412698412698413,0.12020831365331838,0.07956802637897295,0.4651175929956827,0.2845324965920717,0.5007632475054363,0.16438136738566717
203,0.5616795891745012,0.17014339458888011,0.1415667120346592,0.21428571428571427,0.023568640297231817,0.016259074182388308,0.3968849294346474,0.2214153534982336,0.1698977194992744,0.21149678646018832
204,0.6044625203548171,0.5274675233547468,0.39109978153698216,0.4206349206349206,0.16966386649756068,0.0941678011525282,0.6325889049970979,0.2191544499785551,0.5273461319051082,0.22067245028303595
205,0.5275746284728786,0.39857548859539416,0.3180069674762478,0.38095238095238093,0.11794893982773956,0.07520202019054306,0.4971217191240644,0.1993217027917379,0.3979939730140105,0.1661132371836025
206,0.46894668696897823,0.26647772629286787,0.236956940126607,0.38095238095238093,0.06339836462695082,0.04868390700622281,0.3425551658627716,0.17789666421467665,0.26555823261110206,0.1971905249856112
207,0.5627959675815399,0.5972358740070418,0.39028288640305375,0.4285714285714285,0.1393561349676157,0.08671833925947504,0.5207174777498718,0.26911478703936875,0.5982715837719909,0.16979501950959708
208,0.6657130697404208,0.8090502082998093,0.45336892171780374,0.5158730158730158,0.18220145381159025,0.11272022109531112,0.5287997697993316,0.3381874821720069,0.8119275903489453,0.19134167917403555
209,0.254247460297629,0.8443208300387806,0.6266624499899494,0.8333333333333333,0.46483319382196386,0.2948395299204417,0.5114206184044414,0.2089243616916227,0.8439628255417054,0.3225755496427413
210,0.5975291935623388,0.7834586072469634,0.45174810341734095,0.5079365079365079,0.17536990170286385,0.1142991611313977,0.48192010295248516,0.32410848548543614,0.7860041048373688,0.1721591105763261
211,0.46442285664969063,0.49219311057801307,0.363774674081388,0.4126984126984127,0.1320647972069157,0.08129016023547903,0.5299353833118188,0.22217252161029993,0.49212425886142896,0.17771932120838416
212,0.553273649396933,0.7607447700320067,0.5139957233911356,0.45238095238095233,0.26798467452502894,0.14827407080122484,0.6409225059639589,0.25065973202967634,0.7616357892206691,0.17130043211915622
213,0.5347200719760452,0.3527816118946711,0.25928981763158243,0.2936507936507936,0.08685297305190351,0.0568083080458209,0.47097578707606297,0.23366538339435938,0.3528312723739858,0.19806746757366747
214,0.3661969667758065,0.43535230791525126,0.3385417178092994,0.32539682539682535,0.14469476832062445,0.09686525982307742,0.4573746948273763,0.20604533611148357,0.4349120599891052,0.1690556362200774
215,0.4654329003409834,0.49570149083643855,0.3143605642418229,0.31746031746031744,0.13814404858728987,0.07352895271988655,0.6723127501472976,0.28516128786197725,0.4967977490235045,0.1512523486056712
216,0.715766501889902,0.6253623675095177,0.455313873066744,0.5079365079365079,0.19391757532158713,0.1138413203724035,0.5786977177886692,0.22259516915234773,0.6253744595665106,0.17938387881848475
217,0.6014736835656207,0.6789513861680511,0.4988611456782741,0.5238095238095237,0.25142784693589265,0.14796639343863427,0.5786654296296068,0.21721025933655153,0.6788364085905357,0.1880157309717222
218,0.46550399758235184,0.8466297913326696,0.5690596085121706,0.5873015873015872,0.3278721152288033,0.2185775134054402,0.46593230561423077,0.2514404956925466,0.8476657687202304,0.21597995077338955
219,0.4879707195631471,0.8011599949853756,0.5565701279377697,0.6587301587301586,0.2800640478007182,0.18022435718704752,0.49622431310349585,0.23774468290388312,0.801739027760845,0.22645998470388323
220,0.6468253120724432,0.6666929680414748,0.3771422231272276,0.373015873015873,0.14649270999309014,0.09376031346082025,0.4961933985372213,0.3344498936114173,0.6690265562300305,0.15354151454274909
221,0.6192725634353742,0.6613088379455644,0.44392017923358085,0.4444444444444444,0.19672888906980265,0.1217707421014878,0.5290039037174041,0.2557268391414692,0.6621751812536197,0.1810197797129364
222,0.5825843160339119,0.43719839143951067,0.3680804037541415,0.38888888888888884,0.1402928726640908,0.0884887153731611,0.5086841507213269,0.17683231218282258,0.4360366789752531,0.198560798825335
223,0.6490350548751616,0.5681694955008731,0.3342050712725865,0.22222222222222224,0.11849414408215118,0.06944075474569278,0.5739417753568383,0.31707206502580454,0.5699335287310868,0.1439559701737196
224,0.5744885201682619,0.4773468707787528,0.32954296480758843,0.365079365079365,0.11907095720040445,0.0732030919097719,0.5296577152994812,0.2502198309269902,0.4778257319109178,0.20014802747052496
225,0.5412147379569365,0.018005657588493623,0.005320906868352196,0.023809523809523808,0.00019258935908469466,0.0001585440937096859,0.14060982240838832,0.3983329830456449,0.01832197592721277,0.2276537363128134
226,0.5880768331514645,0.04613246287182085,0.007595055382035892,0.023809523809523808,0.00020288039355054709,0.00028685744978090974,0.11875713042658281,0.48927365916537147,0.04676577024814016,0.23024560307872977
227,0.5515634511820877,0.0,0.008851876158139496,0.007936507936507936,0.0,0.0,0.1309521926505401,0.30343814429229465,0.0,0.25757112931834064
228,0.5558617085011972,0.650032518326068,0.4346612580111151,0.7142857142857142,0.1965584005061578,0.129456422588261,0.47369026801895636,0.25769688344764496,0.6509251283351293,0.27044252362312154
229,0.5905760913573261,0.5611891835638039,0.2783421072416756,0.38095238095238093,0.07596403525504052,0.04439545539037737,0.5674800255507522,0.40009499038599383,0.5638950147718601,0.1942790801931612
230,0.6497672405771528,0.555985346168079,0.39731742468935743,0.2777777777777778,0.15593527262480358,0.09068373338755369,0.5852902485481946,0.23273894774324477,0.5561982158666218,0.11829980874809347
231,0.6206620062720825,0.6535768655616347,0.43572497432830026,0.373015873015873,0.21206634274779076,0.11073228721244613,0.6995475085103606,0.2589063020036311,0.6545021100501754,0.14307902197737224
232,0.3782992960417322,0.4919796865753725,0.41847448312729146,0.5,0.20541142088381018,0.13939415707406402,0.44846441746765014,0.1693653307949357,0.49051857576391333,0.2128905536474318
233,0.6597721411946746,0.54110791833516,0.3099219280442828,0.2936507936507936,0.10946405047411774,0.06103777026401491,0.6205293484068966,0.3298714740318065,0.5429605959244923,0.160621480552491
234,0.6933336076184411,0.7364815121112175,0.5036373572724587,0.5158730158730158,0.22339911071204951,0.13339690856166248,0.5637126993716952,0.245912613629729,0.7372144321100599,0.15738428940938654
235,0.6584975484532045,0.427523622119639,0.28825976982580137,0.32539682539682535,0.07408196009079744,0.043251277189722284,0.5677933848595769,0.2622989348499203,0.42812699766895146,0.18803677103625466
236,0.6523596594636294,0.5015989153241356,0.23907857484717265,0.33333333333333326,0.06353780979926979,0.037632159854840516,0.5506711432628593,0.4192460996831652,0.5042015430740818,0.18157218160211497
237,0.5081658528769439,0.5013493565147653,0.31688197838026283,0.46031746031746024,0.10831164423027057,0.07653419855689693,0.41058518219937884,0.286429270275382,0.5024782997751379,0.21724991512284117
238,0.819564739629602,0.7575294309168018,0.4516144959775922,0.4365079365079365,0.16908437913451552,0.09994432011924287,0.570649287163898,0.3081815108194119,0.7597025566376935,0.14586924351941458
239,0.7520113993272435,0.5373003498907667,0.3641177671807153,0.4206349206349206,0.12120777353049184,0.06389394411106644,0.6797355238693354,0.25542276569141065,0.5379659903649873,0.18783334461220003
240,0.6862683997662291,0.8051590832184056,0.4752018273101283,0.5396825396825397,0.18336350369663137,0.11356580386461267,0.5278360083607692,0.3125105932981632,0.807553496081605,0.18113640607736461
241,0.5370134845811974,0.5920174954483762,0.3877322540337277,0.5079365079365079,0.18436078621132918,0.11974006848140512,0.4853608598210672,0.2682722879052395,0.5930268435383215,0.19114331901865084
242,0.4917080339005966,0.3674431316716321,0.28964138067480505,0.38888888888888884,0.1098903860651252,0.0661293474427132,0.5479719175233386,0.20645772528868994,0.3670153256542541,0.2036237764076209
243,0.5858650052265075,0.45017489554677836,0.3189833849914729,0.4841269841269841,0.09851374280568838,0.06457489039304704,0.4709578748670776,0.24108630335461062,0.4504522030649354,0.24962204504210608
244,0.41308727931706657,0.6271061029935981,0.43044266028210576,0.5238095238095237,0.20306550015302702,0.1189867013301642,0.5809867768594423,0.24709192289278492,0.6277254955895304,0.20330464560548395
245,0.5370421831924108,0.12927067703064915,0.11385582859640775,0.15873015873015872,0.014982847747546733,0.012132184323461914,0.2816323765322793,0.21991589189733896,0.12899024901323625,0.24403528923935094
246,0.6568051011191709,0.39992014916191376,0.28303300002014037,0.22222222222222224,0.0811629820394122,0.05067120791558138,0.50970939911716,0.24460419343319334,0.40019868393574054,0.16180247177794413
247,0.803899028203704,0.5915439594123949,0.28326955860110015,0.2936507936507936,0.06692142217600076,0.04037529975257409,0.5355766163006543,0.41879971759478474,0.5945595802200997,0.1351382367332007
248,0.6805087772822185,0.4855161776524164,0.2699261264107166,0.365079365079365,0.08125795585361412,0.047027648789498604,0.5781826367171365,0.3444169347388093,0.4873527309409609,0.1918436634228633
249,0.47915168724956425,0.5109007273536642,0.32782364095682043,0.5396825396825397,0.12999199395757274,0.08920906953083486,0.4357971082081504,0.2795965637735194,0.5119439364665532,0.2617865000073753
250,0.37344397388343054,0.7666486662888186,0.5852615115922044,0.7063492063492063,0.3824449952279705,0.22602411993883573,0.5772650398739778,0.1992506434469275,0.7659441481174686,0.2557184153714012
251,0.687302338373623,0.6884115450834359,0.42125080323326713,0.4444444444444444,0.15363075076939509,0.0935698661983242,0.5414437821601688,0.2967671025312648,0.6901812038022934,0.17429878407023572
252,0.6187105917902498,0.4831403878079934,0.31442737855852254,0.2777777777777778,0.10287809173002402,0.055431666192618065,0.6534428182071363,0.2745289189500224,0.4840429835195186,0.13941179238696524
253,0.6013465368430033,0.48907939554204893,0.17884655953318435,0.1349206349206349,0.04294639092355648,0.017810484905629576,0.8903643318853114,0.5608136009310842,0.4924535641757549,0.12022520414110237
254,0.5490922851037185,0.47454151671626765,0.2526896499939234,0.31746031746031744,0.0761130178983702,0.04654181478051866,0.5266655329153815,0.36464992804779417,0.4765474768050286,0.17634167921930913
255,0.5410129360789482,0.3219572998397264,0.23765744248405596,0.25396825396825395,0.07377280322502329,0.04141161248015798,0.6044485412772491,0.23495229664025835,0.3219983480238067,0.1812907830311545
256,0.4993491423439125,0.33983047320818105,0.2171991461285443,0.25396825396825395,0.07205820679542334,0.04543871772429164,0.498729924474329,0.2888470245277478,0.34060519124317895,0.19270934176287483
257,0.5816021587271638,0.8202826901941292,0.4853262611605441,0.6031746031746031,0.21784382542103875,0.13722607156101863,0.5138231076613111,0.3111711904280716,0.8226948660693961,0.2245210341051795
258,0.7178397296239338,0.7293142313558441,0.5144650304149461,0.6031746031746031,0.21490372159346569,0.13376852300918995,0.5245801255537481,0.23277463312082425,0.7296800649210323,0.23519227771241188
259,0.5601896672722328,0.7464706517859777,0.44591245634523446,0.4841269841269841,0.17772693636437104,0.11408665052178994,0.4953702370664505,0.30731320886021185,0.7485959377796234,0.1612222698636566
260,0.6137952550293975,0.5854204885432587,0.3946852644450841,0.46031746031746024,0.14565997661093075,0.09452464873889607,0.4840553874270456,0.25598348123924175,0.5861728917571781,0.16432533507499592
261,0.5230977183707708,0.4701069863402805,0.346925660228256,0.4365079365079365,0.1346827934123479,0.08765946666947405,0.4807165928201465,0.22393236147999618,0.47006388859960435,0.1847773245923229
262,0.7203436199670468,0.7131078515299565,0.4088040059320529,0.4365079365079365,0.16220625339584097,0.09658279481101588,0.5632203761458088,0.3275430362604608,0.7154868789965223,0.1518007414093455
263,0.5716496722935505,0.9735376769648884,0.6372532603892104,0.6746031746031745,0.4235551061685322,0.2595410256691814,0.5430733172351421,0.2616175596445086,0.9750773953938624,0.22874816914973092
264,0.5730499171846097,0.5315364723076563,0.2970913432043431,0.3571428571428571,0.08531895096237942,0.05507597012145636,0.48180688475635797,0.3414379903687117,0.5335006053794363,0.18899402290692197
265,0.6759037704606834,0.38233429067008373,0.23545979630045255,0.21428571428571427,0.04345266692033846,0.029758671969495522,0.4207245195011859,0.3018725824084948,0.3833671064940868,0.168876995988307
266,0.6109047804857508,0.8080348544846466,0.520212515794608,0.4285714285714285,0.22653663562613027,0.12178627372113089,0.6692212577497239,0.2714553031515966,0.8095361590630756,0.14715075671294417
267,0.4160018506851817,0.6201452891772037,0.4647314858344831,0.373015873015873,0.2164165952611958,0.1220000020814452,0.6198096391564298,0.21113258355947806,0.6198403062272675,0.18533262091135017
268,0.5792431046946926,0.5440207507144221,0.39261822738521246,0.46825396825396814,0.1494107903654102,0.09534199406874601,0.4990321757306471,0.22923039245934473,0.5441438445633796,0.2068701443945332
269,0.5989527450353715,0.6382842632304041,0.42562639507870714,0.4285714285714285,0.15413272390701055,0.08906218179927353,0.5913511793298474,0.2591976304710276,0.6391904441485057,0.16732016627721003
270,0.714930080822141,0.8095775844768117,0.5646659013218777,0.5238095238095237,0.26940796142728707,0.1618072684417018,0.5596130044341514,0.2358588202474427,0.8101084089296564,0.17524946948430206
271,0.4935435476271477,0.45863620724225473,0.22983971757100274,0.4285714285714285,0.061268134299191625,0.04882036701565218,0.3163206318684429,0.39354656848085,0.46083797956630324,0.25157744814609734
272,0.6571657723002624,0.47336352858414843,0.29654662957943617,0.373015873015873,0.09354130509796954,0.05150223024736008,0.6295119668554137,0.29118330572539175,0.4744951156465814,0.18814013169722418
273,0.5505173300977537,0.6888732739355075,0.4326117164000749,0.5158730158730158,0.16434575389909542,0.10101776459932614,0.5337299118828793,0.2848098736368957,0.6904134111620991,0.21823688034686062
274,0.571218198149108,0.7600776050973542,0.5538490493924731,0.7142857142857142,0.29053258597614107,0.17715678439552596,0.5457738835898722,0.218426635608873,0.7600301277322669,0.24504123579768441
275,0.6986412292360888,0.8398488934674193,0.4631461988638115,0.5317460317460316,0.1862904572911093,0.1247063882413614,0.4593704858560064,0.34621066414586654,0.8429714071537382,0.19220949913126614
276,0.5684181045201782,0.5815300287893992,0.368340594450884,0.4365079365079365,0.11946450271679958,0.07734005884661733,0.48400918495284656,0.28324329777855595,0.5827931728068414,0.18783235744029061
277,0.6259978687935399,0.5032258745035658,0.350506820599836,0.31746031746031744,0.1261506710427089,0.06283365427360739,0.7415749741704072,0.2454175923056321,0.5036491212915342,0.18539697399965258
278,0.775655010997031,0.16307480336394836,0.12574608197614853,0.25396825396825395,0.015897645926476005,0.013330005365161454,0.26343117043748115,0.24692760645871048,0.163079489495153,0.23777456496226687
279,0.6739976704207269,0.5071659330138846,0.3510156472509042,0.4365079365079365,0.13695779578510991,0.09278456741717522,0.44691557899455175,0.247851926733126,0.5076415387298134,0.18116852938190683
280,0.7344794410057773,0.44966344694034166,0.18914490259393107,0.2777777777777778,0.035269258429315366,0.01893708965134287,0.6143632832358614,0.48100655576643225,0.4524202429093943,0.1802444437212867
281,0.727324347675022,0.4329906411393952,0.2585198523642081,0.365079365079365,0.06328216375047566,0.041007040921479214,0.47308811318297944,0.31331003077590847,0.43430072027729727,0.19547865664231062
282,0.6329144953394412,0.6984129507261312,0.47558283521515043,0.4841269841269841,0.22917033061417919,0.14714570388844342,0.4970256194004567,0.24862142602158777,0.699164742884103,0.17381306695743975
283,0.46532692202718495,0.45570905060121625,0.3902684896978406,0.373015873015873,0.1589551328564757,0.10200636267393144,0.49465228024752655,0.1693868603814852,0.4543086590809212,0.15765713133851894
284,0.5855528791179507,0.6997574151913469,0.42939155229826165,0.5634920634920635,0.18514595169835396,0.10621138523601271,0.6007015073736375,0.2952900484018163,0.7015285460753891,0.18646889772009487
285,0.5701106241170433,0.5434857472101426,0.3387256885243386,0.45238095238095233,0.12722059948233339,0.07896808084384697,0.5218712442347424,0.29139180109131324,0.5447942103839856,0.22197588076654626
286,0.5445259093420236,0.5320082769729163,0.3559622213654237,0.5079365079365079,0.14450690166197522,0.0940726854711063,0.48124331518823066,0.2609890876449431,0.5327705954723877,0.19531058783712194
287,0.48154188758057703,0.33965736109177247,0.2960224312997984,0.3015873015873015,0.10887880833506622,0.0649163266797744,0.55637633024557,0.17402772460732996,0.33855815236323794,0.19353653392515438
288,0.5979858805152984,0.40233322872153743,0.24559898218936033,0.3412698412698413,0.07055226363496825,0.04325349326128527,0.5227068572445777,0.30477761006350723,0.4034547219641835,0.229212333931593
289,0.604254235880211,0.6513278071966158,0.4898270385900765,0.5634920634920635,0.19428496921557917,0.12412825754992876,0.5002721778297401,0.20864150570986983,0.6509525141939021,0.22989291820883373
290,0.6483872865865359,0.5082799717309223,0.34818288034823647,0.38888888888888884,0.13441231672473547,0.07333648646739929,0.6462817014591526,0.25206183104843083,0.5088374909792974,0.1781722230782897
291,0.6001516525289419,0.13020499954218695,0.08998861710512168,0.14285714285714285,0.017548032140778342,0.013338667554344872,0.3234946420687396,0.2892373373935483,0.13047473786429248,0.23565521878565585
292,0.5727037427144284,0.04496595794495792,0.014311969392153595,0.047619047619047616,0.0008318800860625804,0.0009120232150713727,0.1295764693908486,0.430859876496689,0.04547795157785792,0.2343374573995929
293,0.5653623646111068,0.17691170409761808,0.13337401143490946,0.1349206349206349,0.025461531037003722,0.017962513840268732,0.3841106464561617,0.2503973768628989,0.17696760707124726,0.19226267292997265
294,0.6529956973442541,0.640907229876384,0.45767637491992086,0.5238095238095237,0.167534455591762,0.09673919215502379,0.5930968539529233,0.230103438682091,0.6411268198073985,0.2124675741744418
295,0.6036143049115197,0.7723832080186942,0.3718003771514191,0.6031746031746031,0.13210273693086808,0.09291471461889789,0.4159881097097003,0.418661257773122,0.7762347333786552,0.25376315699392593
296,0.7947834873818904,0.5133379173496981,0.32884617041060626,0.32539682539682535,0.09501707634131269,0.05401140896564976,0.5987964302510149,0.2802297350090722,0.514396737157296,0.12280788390407589
297,0.6872410618726696,0.4690639184640465,0.3447931983293821,0.45238095238095233,0.11832881840786882,0.06400129562780717,0.6526798167157826,0.22553458044457197,0.46905376782938724,0.22093314149399954
298,0.7577014546475447,0.5851633202340989,0.40598753213729943,0.373015873015873,0.13869645358747815,0.08161926679433357,0.5723707719214528,0.2438790185992446,0.5856568562122413,0.16238895908920786
299,0.6905335329742037,0.6771554765745131,0.4064701374784517,0.5634920634920635,0.16941481505971318,0.10750685713184555,0.5051689760132065,0.30594198253462557,0.679060608001808,0.23082302199109989
300,0.5696059067638142,0.4602105378433484,0.26342507433753726,0.2936507936507936,0.06837497132892568,0.04268483210726776,0.5062576572885147,0.33139335828360816,0.4618151445385219,0.19813092941905663
301,0.5623670289257543,0.031091392049666405,0.062544213149656,0.10317460317460317,0.008240771069528155,0.0064322171264938,0.2800454884763723,0.16277942597099154,0.030334862959841835,0.2255041260177937
302,0.8140179399838694,0.7372787069023282,0.4460355593707145,0.3412698412698413,0.17434795296434383,0.08808740207599702,0.7326086255399276,0.30141020335195434,0.7392660691163838,0.13685217221096052
303,0.5820254742129038,0.5280643507186749,0.38576506799957766,0.4444444444444444,0.1749400748607404,0.10688604452935178,0.5398996869865889,0.2250370648179938,0.5280804775023685,0.18685801848649555
304,0.6937183727980454,0.23203439283111255,0.15457529817155793,0.2063492063492063,0.02867484150979733,0.015054481048796335,0.6205189599942882,0.28249049657999714,0.2324909573504646,0.2191090126054868
305,0.7418104432120969,0.31411924890371307,0.23162517170106162,0.2936507936507936,0.05842900225022551,0.036863803675826416,0.4935961140684874,0.23615097567158044,0.31417043916552106,0.19441142465331
306,0.621847966971389,0.46442369250436655,0.34719566299002375,0.4444444444444444,0.11548014177074803,0.07302821366045964,0.5040306259384411,0.21921761551846436,0.4642773122730973,0.22636733817744553
307,0.626876379455253,0.6537908753711542,0.42327838773538706,0.5317460317460316,0.18802231760901156,0.10890481027700338,0.5914345345486864,0.27179879329529655,0.6549915684181786,0.22413532877043849
308,0.2349352286455555,0.17428815930577396,0.21480379763132545,0.09523809523809523,0.08049264259804799,0.07026590351868983,0.2575218532212012,0.10633435184179402,0.17208548505935373,0.42820396968623015
309,0.2632744689014601,0.24211515155441038,0.14137288511326168,0.0,0.03737692850065031,0.018279155446282995,0.7054743945472919,0.3297255075436295,0.24298613986128903,0.3214877939480685
310,0.06349494383773324,0.5849904816032475,0.8593028805426013,1.0,0.7218562685077529,0.8202760480250098,0.1068236393388961,0.0008221923324003011,0.5701145080104514,1.0
311,0.1607444367479558,0.7096370290126817,0.8978594445157917,0.8174603174603174,0.9467845547897596,0.6250518402195988,0.47715362787688237,0.03331655608452355,0.6974480755514553,0.7238256664812017
312,0.2880224124010349,0.6890807286342194,0.7972610949247022,0.7301587301587301,0.6899583851775164,0.5949360380866079,0.2700025713906888,0.05914944998675514,0.6801270162042646,0.6375391686066874
313,0.6446498697814573,0.8840458957942582,0.8126920460682423,0.6746031746031745,0.46654303751579795,0.3538927040794097,0.3618120571779903,0.12639313524101847,0.8793793621114493,0.592751938279492
314,0.5706908566670683,0.6205183945112406,0.12322808835152427,0.07936507936507936,0.02299630400651665,0.010362417908945046,0.7358901773499618,0.9999999999999999,0.6259149550432314,0.0
315,0.0,0.5680633028036534,0.8404857569735952,0.8730158730158729,0.6972331457097037,0.9999999999999999,0.0,0.0,0.553392092269211,0.8267470745820078
316,0.30825761956118014,0.7830960324924721,0.9340227973228517,0.7301587301587301,0.9033231749356452,0.5934653420239172,0.48138392365153254,0.04708604547998391,0.771749862539318,0.6188871006098737
317,0.3501555707761246,0.7764947837812776,0.8622444236012738,0.365079365079365,0.8167781874883093,0.5011573203194886,0.543845718488658,0.06812908088405928,0.76760369274149,0.26490203836652715
318,0.2638835554635346,0.15004889587762,0.2285230443390146,0.15873015873015872,0.07540605229648933,0.05908829148531185,0.32988111835189954,0.06370270932105637,0.14676903447644057,0.5225676808301374
319,0.2690224553090277,0.13380638080955326,0.16775270750840113,0.09523809523809523,0.05414079837776674,0.040603049626417795,0.35753260098403944,0.12136669222004948,0.1321458120110524,0.43245692059041385
320,0.4439060522416167,0.7075296564698494,0.6610129848075478,0.3412698412698413,0.42437310322611743,0.2637120723802612,0.5299666355746144,0.12592408734117588,0.7035661047125907,0.2625421035819202
321,0.4253560024475729,0.4713403254968529,0.5040419253388282,0.40476190476190477,0.2592274192290587,0.23271821398822035,0.2425093492532226,0.09477032033406807,0.46687652570133287,0.35325489239296065
322,0.4348170792243218,0.6598459144242147,0.8288212321901217,0.5873015873015872,0.5942849567744041,0.499492775354486,0.28740222201682836,0.037293462425363466,0.6488297143352243,0.41004824847928245
323,0.3017420679463081,0.5943951156324156,0.7145781532659685,0.5158730158730158,0.5309879752657438,0.36756068425497057,0.4353491821058389,0.05254227085887181,0.5858019702566979,0.42498195926410043
324,0.5444509482578834,0.8882078540655042,0.8279552417397571,0.626984126984127,0.5813257456277895,0.39080934525777344,0.4604245853679529,0.12141353581532649,0.8831688828319445,0.4677347600575044
325,0.3787523296325539,0.8028107896182585,0.7550682949805667,0.5158730158730158,0.5551435543982731,0.37222940958647227,0.46258775607970687,0.12056729662260701,0.7980976815630572,0.3547361518667272
326,0.40322258495236585,0.6189872178863309,0.6390297886804656,0.4444444444444444,0.48152826900666185,0.23568810739067353,0.7808455086038664,0.09673760859498842,0.6136840203157348,0.41588649386548004
327,0.3473927890557822,0.2984368698061856,0.3673221504242648,0.30952380952380953,0.12860016150912745,0.13839371884461435,0.13549497110589032,0.07410842370305049,0.29422786126571676,0.498698611563566
328,0.3806443033319624,0.536176405037777,0.6609946182968737,0.3015873015873015,0.32907455873385066,0.17167499820766258,0.7053207009073921,0.048884307162942564,0.5279008003664992,0.342931748443181
329,0.2932637866086243,0.465607224355846,0.5594270582576206,0.39682539682539675,0.38000621382801325,0.2644395517688691,0.43008801081094444,0.06107913884170468,0.45908071184860544,0.4652910366783995
330,0.39865562476010874,0.7463565575897209,0.9588213044253404,0.6031746031746031,0.8312124763785786,0.5240167573789386,0.5185529081587754,0.02789204325565542,0.7328896459762448,0.37977448511025946
331,0.539912116342615,0.7633096078843598,0.6045023246526493,0.4126984126984127,0.32534958597981506,0.19812831268918057,0.5476631939000529,0.18461563573073553,0.7620457400188922,0.38837959299276087
332,0.4723614809076131,0.7198768367450175,0.7202250723991563,0.5952380952380951,0.5279293849127592,0.33121339138480127,0.5218863997798111,0.10262970870615379,0.7143565555745439,0.3996945568295746
333,0.4395504672268489,0.5885456102406231,0.5695599906733363,0.5079365079365079,0.4031334026157743,0.22255869904216885,0.6462584464403265,0.11916828763854931,0.5847318893348316,0.43382394222542836
334,0.31066565469745466,0.481946901633884,0.556548974276086,0.46825396825396814,0.3719907804349218,0.28596874595187166,0.3512394242784788,0.07110584326375785,0.47596828759253085,0.4616539199455738
335,0.43738998839932863,0.7772160409580665,0.7964161439689135,0.5793650793650793,0.5552236434742741,0.42972230579799675,0.3468223728557667,0.09299109194817373,0.7705976523309905,0.4212732097553759
336,0.36763753003646404,0.6301031842433681,0.5778094912651366,0.30952380952380953,0.3412740048236106,0.18993392587583555,0.6368044905458947,0.13540286769225013,0.6269438870643388,0.20106146441533063
337,0.3711873155257144,0.4956300083330246,0.507395895979596,0.4365079365079365,0.2699681261788315,0.22066499027521802,0.30584296312811693,0.10652510969892454,0.49163551459372745,0.3861584595445001
338,0.2576188896321532,0.22580162415495952,0.2888924086987958,0.2063492063492063,0.11507729554531836,0.0818066628076302,0.40636519291940326,0.07937017121266537,0.22241435033630053,0.4321800996405143
339,0.31914098241196176,0.4022265776398589,0.4923874471059776,0.31746031746031744,0.3022899038715688,0.20570243973006888,0.4480514424774837,0.06168874529777235,0.39637334131948476,0.3678327294476779
340,0.29879075467293603,0.5366384375426727,0.7016481308891166,0.32539682539682535,0.4586122704885367,0.3510347776742854,0.354901744323363,0.03297976420156051,0.5267947373340031,0.3202428246394016
341,0.3983383332546204,0.6705411444999491,0.7363726542444213,0.5079365079365079,0.5154495362311315,0.4525053220712887,0.2577987939403183,0.07534204168786685,0.6632557612743489,0.3819565775777562
342,0.20974792091021355,0.4129809064856971,0.555676101256959,0.5317460317460316,0.4067390772762993,0.25775309717104317,0.5117748193160827,0.03525910535390736,0.4050418085591989,0.5546794766059888
343,0.2552992536410186,0.5911308879625807,0.7405028573827236,0.47619047619047616,0.5863817302655678,0.34881682440606915,0.5727094493470515,0.041327574372261366,0.5814533252398708,0.2903100692026218
344,0.6190366216328187,0.6130807180257368,0.4667247536765511,0.32539682539682535,0.23480894279233427,0.12333268340411446,0.6944573259813389,0.20495102261411174,0.6125971695273005,0.28785333351911496
345,0.4459160637502062,0.34533402388634366,0.4045789446907954,0.26984126984126977,0.1740534672928093,0.11698908731456799,0.45544805806513927,0.08079673056367914,0.34105891515636955,0.4293809648908944
346,0.8299460132361849,0.3752747209677505,0.3884802991665729,0.2936507936507936,0.13802347021940545,0.07518121120594466,0.6484572049937607,0.11377010333914145,0.3722442501703199,0.4526665443433486
347,0.753245866245865,0.2944206963155614,0.27047432298053387,0.1746031746031746,0.08158197798118305,0.04943698823961918,0.5361815357769006,0.16246700060441893,0.29313365095515453,0.38221583752468496
348,0.5183455910669725,0.40339160213293934,0.3422051006384652,0.30952380952380953,0.0885284988777206,0.057224866956998015,0.4812482039701326,0.17672321754948522,0.4022710108594183,0.48890992333555205
349,0.7999118846099942,0.7729873828469539,0.7319396846700394,0.5555555555555555,0.4695116756940134,0.23729371136293023,0.7435437920848995,0.119185069768873,0.7683191923339581,0.4423320896009601
350,0.7347468950896825,0.672976634344922,0.7443206165449986,0.5396825396825397,0.5386296544875135,0.2914090958348504,0.6691874273639664,0.07311636970595159,0.6654796864640913,0.42781846707891036
351,0.8288072735823488,0.6061842140518381,0.5294634505561283,0.4206349206349206,0.157607701132349,0.0962720505356499,0.5390404230706278,0.15360673589419516,0.6039170725548758,0.4099213621248029
352,0.5954688135781789,0.0680062104394745,0.10932024223980571,0.10317460317460317,0.011124665039056344,0.01031439423319983,0.20416547707581306,0.12309776499740432,0.06666656569417745,0.5695518029872948
353,0.8087450644473566,0.23662931888492894,0.2538009723869127,0.1349206349206349,0.06313687332581805,0.030500905663475807,0.7499135117558584,0.12588873444252507,0.2346275594234638,0.44307313671482323
354,0.6583288358753254,0.3997867019337382,0.38539442756223696,0.373015873015873,0.12541639205412258,0.084389501109854,0.4517645694209061,0.13378064533509293,0.39738835615625245,0.4351364052471608
355,0.5388073074955124,0.16427411935389197,0.14531888225003964,0.19047619047619047,0.018838857908743924,0.019299053648280447,0.1591778384764279,0.20456018711909812,0.16383336768123152,0.47502663037278536
356,0.7130684666114091,0.5185443019831949,0.49431804085078934,0.33333333333333326,0.21401662074065333,0.11033676269625538,0.7135393863836141,0.12812601186156514,0.5154669601472698,0.3862722142335654
357,0.439260097905388,0.6161759372461107,0.7211136632029153,0.5317460317460316,0.5326098321589,0.292447533104065,0.6534423412715993,0.05909572111832495,0.6079631581035776,0.435981831070035
358,0.5599170771571289,0.5578598907146093,0.6532076475428348,0.4285714285714285,0.4050031880311662,0.2381822667632703,0.582361795628582,0.06206564882143539,0.5504925617702439,0.3056840830897674
359,0.4827612036853939,0.4406607985928065,0.4879868695386972,0.46825396825396814,0.2802310788482741,0.18814884661403583,0.45914867792324227,0.08678251772513862,0.43597375413798123,0.4299913304973833
360,0.4599784489920893,0.7957451229276973,0.8180305340706322,0.8253968253968254,0.6014490701222324,0.5156124640185993,0.2738456015030793,0.09140958094609658,0.7888688020805878,0.6600897641004819
361,0.396621546265129,0.6089264983846997,0.7573997888844195,0.6666666666666666,0.5529124617587591,0.3359970110757,0.5519620324606609,0.04235193348850347,0.599135392881847,0.5425648111231316
362,0.3699768041086564,0.6218591938108124,0.6677198506087321,0.6746031746031745,0.4283662401717059,0.35215628073764793,0.3025429077570672,0.08440191011151271,0.6156773340027659,0.5112676826594398
363,0.429919059133435,0.6334680535773213,0.5979789978633073,0.5238095238095237,0.3224439847984195,0.2280323719711233,0.4162935799465112,0.12539759103343567,0.6297852680526469,0.4682516066359606
364,0.4048022445458732,0.8077763718708882,0.8657673011521333,0.4444444444444444,0.7105135333611935,0.45329457916058913,0.5073027924065614,0.07799061949247948,0.7995942968503785,0.3281791722932354
365,0.5645011278628007,0.7772654007152429,0.8633294175678454,0.6984126984126984,0.6946770787811701,0.4176449555838306,0.5629339959658377,0.06802892716628778,0.7683569758517627,0.5679311626218067
366,0.383097259757853,0.3737972813076108,0.4271763585331626,0.30952380952380953,0.14625789563359431,0.09795330724648237,0.45710973720570064,0.08432378155113412,0.3694766937651861,0.5236458264893298
367,0.30827264336572524,0.6161645702272648,0.7274482381907622,0.6349206349206349,0.5978569253745359,0.382845985053055,0.5035057530644,0.0565817052695583,0.6077182248671024,0.5289437866546924
368,0.38760777041922245,0.8043900385188266,0.8320910315224688,0.4126984126984127,0.6982121768003089,0.39641952009688075,0.6198095237398702,0.0891457257468089,0.7972585894013756,0.3117735027219287
369,0.37809431624202694,0.4802347723968923,0.5791958665478771,0.46825396825396814,0.4157235510102896,0.20086206692653685,0.7949829716994883,0.058871374728054315,0.473396693268486,0.42574659622314176
370,0.3407015547778929,0.6222509188144859,0.7043352519927347,0.47619047619047616,0.48358091331608477,0.29155305808372206,0.5590349388927089,0.0684878443219663,0.6148084583165444,0.4584099812858439
371,0.46561343273721745,0.5190376448152059,0.621571904909439,0.5238095238095237,0.41496329034317286,0.23747158024759138,0.6095970974851295,0.05809873992185938,0.5117389944200951,0.47272356283193245
372,0.8460761292980739,0.8518775771709235,0.732143385955228,0.5476190476190476,0.44030106106834327,0.24262363669283687,0.6487285154880775,0.15131604001290322,0.848875247873453,0.4325462138829957
373,0.6286861843145928,0.5112650669931605,0.49309838978043463,0.365079365079365,0.27218666765299504,0.14203145014771004,0.7032286907716301,0.12474997797629117,0.5080668973479618,0.369441670738409
374,0.583338501204921,0.5422115607115416,0.6072985227270346,0.5793650793650793,0.36265178890997507,0.23616942038117006,0.4868187239883713,0.07595958507778416,0.5360508739753425,0.5408042702293945
375,0.6709103944097061,0.7033285335264033,0.7185619266492921,0.5317460317460316,0.4315698240615167,0.2990432756903142,0.4340013869027563,0.09650350641284483,0.6974684487385042,0.4110377265743729
376,0.5451982177666195,0.5133826948696022,0.5221818718507781,0.30952380952380953,0.30874326631006366,0.18789507491087004,0.5479706449815489,0.10737931889072738,0.5093334884705294,0.3220019370499269
377,0.5911137446729455,0.5776936987000943,0.643683242007373,0.47619047619047616,0.3706610700015943,0.1930274619189498,0.7082605194281599,0.07545272841862677,0.571198526441071,0.4383472721642926
378,0.5614145857722586,0.35726552754430574,0.3033730997892294,0.30952380952380953,0.08978218283090308,0.05497261015540769,0.5287756819524407,0.18091859198601462,0.3563023257031439,0.4302774504922239
379,0.6320965616194558,0.6725887459079617,0.7047610553533532,0.40476190476190477,0.4240392893523741,0.21160909280907064,0.7573416388943153,0.08969642816899798,0.6664310274411412,0.36247719757076247
380,0.8964911867589629,0.7177801207123342,0.6949685071665427,0.46825396825396814,0.339467570352014,0.1695029984919268,0.7547458303857597,0.11351205938464726,0.7130089669051272,0.42100591149697164
381,0.7899937664581926,0.5970610826538681,0.523595646747527,0.3571428571428571,0.20603187419095853,0.11236501694732023,0.6530775141928484,0.15259859677022003,0.5947751285059136,0.38453778935196686
382,0.6275619634196288,0.6346811669606964,0.7676912049515235,0.6507936507936507,0.57528722324129,0.31665027908152543,0.6512323254639094,0.048847741982366966,0.6252661583978534,0.5607348325937689
383,0.48179407548327347,0.8689280202893294,0.7852856441987204,0.5793650793650793,0.605980372101576,0.34202199712708853,0.6253737285311713,0.1327418111478318,0.864749232207816,0.42855228091200964
384,0.6888129734133446,0.47244260370681757,0.5348206070739527,0.373015873015873,0.19273346252143886,0.11099203202019621,0.597351128026749,0.07764952476593534,0.4669720808398983,0.4078548734640688
385,0.5067681805408879,0.3416606097115303,0.4276329455559441,0.365079365079365,0.2007098896392202,0.11557986019294081,0.5978341448074611,0.06287048194907735,0.33647615812098086,0.5031537256471798
386,0.6795732306289277,0.5981707788844723,0.5335521809737587,0.4126984126984127,0.26326141228966377,0.13153424529709679,0.7512509178657716,0.14656238509907715,0.5956272186094886,0.3963613268161411
387,0.4417443629196891,0.752616970787903,0.7913722063542551,0.7301587301587301,0.595805486328869,0.4417971843237736,0.3797890919628704,0.0856336757286208,0.745557362457018,0.5751232719970764
388,0.7257199996327961,0.6935375546713193,0.6817518826898841,0.45238095238095233,0.44626455427152634,0.1852313482339089,0.9903645005446569,0.10937957491541567,0.6886244623814973,0.36766815598772934
389,0.5915574013313762,0.41436008409685765,0.5187756859971657,0.5873015873015872,0.2702453905482077,0.1544565959940656,0.6080447727552345,0.0542971550175988,0.4078816854493844,0.6030469630200805
390,0.5353321476801998,0.5192764788051634,0.5991313270016674,0.33333333333333326,0.34546331780743883,0.17134847258344058,0.7625932512127858,0.0687280266869586,0.5127943277230564,0.4209455850251306
391,0.5710678793764683,0.8099717402945799,0.7135465323618364,0.25396825396825395,0.4897140879893729,0.2525193310159931,0.7211702060702563,0.14318601441669282,0.8066300088997475,0.3708958117554551
392,0.5427006349377335,0.1902333927618287,0.2753540902234746,0.26190476190476186,0.0650757543207603,0.048108941515132966,0.3704213317682384,0.05883066509451618,0.18637029356041335,0.532784069593773
393,0.5922617742995175,0.32726770983899445,0.34253424045987063,0.30952380952380953,0.11380889326605716,0.07089416441902248,0.517203441499569,0.11647623645883126,0.32457369058211827,0.5330261822573128
394,0.5849838319316569,0.38466708796087623,0.40726151483042333,0.3015873015873015,0.19308114771462634,0.09240545259230375,0.7962149807495231,0.1058416235306806,0.38126413234489986,0.47121264207731384
395,0.3344012784756163,0.8737509839840288,0.95956929386252,0.8095238095238094,0.9181351980182195,0.6936478228512368,0.36576225114012156,0.06867772736093863,0.8640275254541118,0.7316925921727486
396,0.5564267309083799,0.9885234863596092,0.9800854067606772,0.6984126984126984,0.7044202637301754,0.5254374026242812,0.37538692176818284,0.09839279255686645,0.9810159399226054,0.5449814321417774
397,0.674599385890994,0.5568045761180702,0.4555226587637111,0.32539682539682535,0.17811507329628984,0.09718400767536156,0.6507204855471183,0.1798034811282695,0.5555839320192069,0.3633801491540458
398,0.9999999999999998,0.7039903231066142,0.4581758055910363,0.3492063492063492,0.1663058251411604,0.08074835143467339,0.7765516539115016,0.26820553239568756,0.70521228702165,0.3440651253045689
399,0.719961470587664,0.5199277258743935,0.5518879897254537,0.4126984126984127,0.26164139646060997,0.14590231223790404,0.6326653024626203,0.09360283192938151,0.5150762688859778,0.3805574887707655
400,0.6867294975387777,0.5913469929450103,0.47513450934109636,0.26190476190476186,0.22336078487526626,0.127128391665621,0.6105118434550763,0.18504112753807556,0.5902596322996327,0.29404330609047297
401,0.7163164272229734,0.3709080586954553,0.41832028937667476,0.2936507936507936,0.15021462310576622,0.07425107250601491,0.7541112977807798,0.08850969138921994,0.36681290524051524,0.3637847921396621
402,0.8352943518177358,0.66780644880803,0.6365398115947084,0.5317460317460316,0.33288762794454635,0.1719079204248571,0.7166317649426004,0.12064818039802777,0.6637108083451965,0.4846804447145675
403,0.6129418870587318,0.38715905752722946,0.3673469362875891,0.2777777777777778,0.14308060126624947,0.07369167412791591,0.7078890172843226,0.1402109488124274,0.38502062650657287,0.36861534821173486
404,0.6075052418122864,0.45622977193045877,0.5265983395086962,0.40476190476190477,0.2770219845736356,0.180209492199863,0.486551402087616,0.07330155937773081,0.45062045002182016,0.45128027867235154
405,0.6322123442896188,0.5394260943232182,0.5196013342965337,0.39682539682539675,0.30049930839843164,0.16827024743251098,0.6295665433948385,0.1233972835354537,0.5360444124263698,0.45045543112851033
406,0.591654667963422,0.3307756046468831,0.404474686673456,0.40476190476190477,0.1169496146226436,0.09975349663610576,0.2742215830987214,0.07080313819169604,0.32612214854676147,0.5494407628040733
407,0.6555060143164664,0.19587589685053958,0.23736381722774902,0.21428571428571427,0.07125364392859343,0.03963479783129047,0.612119560682937,0.10301463419152351,0.19346063997761476,0.5289209094082704
408,0.7099565581047946,0.7325662949917404,0.7586967294150493,0.5793650793650793,0.4472502007899616,0.25123908399585293,0.6288781143849627,0.09109828586251295,0.7260992441762568,0.4903305047256473
409,0.639479952650331,0.21721145353926563,0.2773454248808701,0.22222222222222224,0.06204420138759747,0.043558991872087734,0.4087033726436214,0.08232781658900179,0.21399924551845811,0.44842323995253697
410,0.5953706085898811,0.38740052847476425,0.471447960894013,0.3015873015873015,0.24065701045853208,0.13572633784113303,0.6204075371706612,0.06493248434968868,0.38189502538535636,0.3072076123373208
411,0.6241650120116977,0.6602999146882819,0.6636676434374046,0.6349206349206349,0.33707929279630067,0.20242850215234415,0.561117071476056,0.10346533477557229,0.6551864627042401,0.5340298453116196
412,0.5757847460979753,0.5266505158149126,0.6054657341308274,0.4444444444444444,0.3547384761674374,0.1737805806135364,0.7772453678907347,0.0692818181080454,0.5201420033926956,0.3950930324584161
413,0.636334262911906,0.20211315180031364,0.20639676866387424,0.1111111111111111,0.039580713968669044,0.0257202435804032,0.45883152397971844,0.14951927061745468,0.20076679921396057,0.4025697641555209
414,0.7025875581561292,0.4493378705248747,0.3682787049988887,0.22222222222222224,0.12566129520883426,0.06875614014926056,0.6421600952405333,0.1854446842147085,0.4483927461172389,0.3763073647374133
415,0.6406829415440256,0.2849967774933943,0.3235590933865351,0.22222222222222224,0.11369014231351375,0.06314124093876256,0.6252524633668417,0.09922851160946289,0.2819225294503446,0.4164357933755882
416,0.6162956982305396,0.6018973292576065,0.48407949853610777,0.40476190476190477,0.22949353785204507,0.1331945289582344,0.5914445948701759,0.18417415983106367,0.6007715047524667,0.479178822323213
417,0.6533242312385077,0.45769038367654924,0.4633250638628824,0.33333333333333326,0.18495825224864804,0.12184183180383697,0.4730771586100519,0.11296442530497014,0.4542085676174692,0.35865708244240696
418,0.6033090079805672,0.2881593806986114,0.3238264411340541,0.31746031746031744,0.11342363259697036,0.07771259154200964,0.4358354807836307,0.1016217797863751,0.2851523662419957,0.5190237771392676
419,0.7056942631082936,0.6760525280925912,0.6401228978340302,0.492063492063492,0.39091118473458913,0.21026889900270593,0.6735259620588749,0.12256780437875969,0.6720303537119879,0.4372009313556803
420,0.6354325151759026,0.5263219576781683,0.5079222093251026,0.365079365079365,0.23804224429104742,0.14595100016925736,0.5392852254417793,0.12357271729567304,0.5230053271768885,0.41213412650591363
421,0.6228090282261098,0.40986104445627625,0.363414387144845,0.38095238095238093,0.13550247599599552,0.09630642214260558,0.4078470538472632,0.16075851624264997,0.4082933240485941,0.5420760284355407
422,0.8288495508818368,0.4209245588353123,0.4466606721334534,0.33333333333333326,0.1764775351620095,0.11079397021694057,0.5151601724999817,0.10147537080690311,0.4171156913797639,0.4733835001756238
423,0.6664335303449525,0.5966681562398762,0.6528098375147378,0.40476190476190477,0.39623607008543127,0.2166045256824772,0.6564796108192588,0.07991414667661201,0.5903501549525076,0.40628921154068515
424,0.7675359853662087,0.632696651700862,0.5896211167193671,0.4285714285714285,0.28542958889894937,0.14087713703740937,0.7662270887285803,0.12977163507251271,0.6292454076197077,0.42957915263447727
425,0.7020936449746487,0.5447454847561993,0.5016586461918553,0.4841269841269841,0.22003721003116206,0.12244066194103026,0.6331429372902646,0.1382206389693731,0.5420105512549025,0.4810767813574844
426,0.6350335389573771,0.6435151257563394,0.5390488417855812,0.46031746031746024,0.243928202280097,0.14199044527577873,0.5890855929638215,0.1672472928529815,0.6417201643553903,0.37659388424500356
427,0.6670887105498728,0.5185235567622631,0.450455332025652,0.33333333333333326,0.19951206887843198,0.09240688568508575,0.8358298157686772,0.16005493444492908,0.5167039574172742,0.37392928840251793
428,0.6436202791662129,0.559765238474618,0.4988217413457232,0.4365079365079365,0.22610889612682594,0.1312655101910226,0.5910453092273384,0.1487755426122912,0.5574218973416307,0.4498484333059696
429,0.5523545305469664,0.4426860552599563,0.45756738335024716,0.40476190476190477,0.23939598960208427,0.1503983224270846,0.5169181208723075,0.10762345456802641,0.4390386714252338,0.4225802300851239
430,0.6275376746965895,0.5000002210619358,0.5980105012950627,0.5158730158730158,0.3536841249864265,0.19640586520575565,0.6393347139201526,0.05977236364576738,0.49302927161403587,0.44762654401875246
431,0.6105598572920874,0.8403182184049223,0.7239921075925811,0.47619047619047616,0.47808817667405507,0.2353329198371636,0.7741521002131637,0.15069280414778397,0.8373114850025413,0.3203934792743014
432,0.6752772118776862,0.2538176103408267,0.34716612813411674,0.26984126984126977,0.13579132088118717,0.06786181109267983,0.7396458791625531,0.05496124830376098,0.2491110219976514,0.48525565506361257
433,0.6838163808875406,0.3792618401766411,0.43483782795696757,0.2857142857142857,0.16911212112222404,0.12177884700959293,0.39891575198179524,0.0827561947527779,0.3748206440071489,0.45562134626947237
434,0.29582137942188647,0.7384224510198939,0.8282091951248799,0.7936507936507936,0.5424950512489037,0.501134317189962,0.22490281934856043,0.06644189620593655,0.729714799918449,0.6980129330895373
435,0.4145504242548965,0.5742155400610237,0.6065331125730707,0.4444444444444444,0.3459500561879414,0.21690068037772556,0.5208542481765774,0.0918741913530503,0.5688908972854839,0.39864405853507684
436,0.43971644925091,0.6680171720122046,0.5806112640940577,0.4126984126984127,0.34538162878828904,0.19579216210115627,0.6180643980821112,0.15281646779035407,0.6655614225345778,0.22559070309571205
437,0.5307511393000177,0.6902825267338631,0.5728013792244002,0.5396825396825397,0.32879181562339405,0.18498792838983688,0.6253921435876679,0.1690305676873854,0.688479148002773,0.49840799205179054
438,0.31091508588205086,0.4526301735256304,0.6137879541460644,0.4841269841269841,0.36900084462403004,0.2150891366766956,0.5906116531474206,0.029630933075883603,0.44362933972881813,0.45875158984960407
439,0.36342904000190357,0.8305317096466237,0.9984589180078272,0.8412698412698412,1.0,0.6420881786897586,0.5021010127689223,0.04345752834746719,0.8181394741003067,0.6173057633145638
