,mean_nni,sdnn,rmssd,nni_50,lf,hf,lf_hf_ratio,ratio_sd2_sd1,sd2,sampen
0,0.5650414844857502,0.7874178848237529,0.4753407631593997,0.4740259740259741,0.1943196681151401,0.1379608854545245,0.6116939629730311,0.31240895285244175,0.7898166909345626,0.17949817827885847
1,0.4328909836413325,0.37018790394717377,0.1287628871712604,0.3116883116883117,0.018936225686230067,0.013966482888593855,0.5662421721852159,0.5758855209990719,0.3730534601344206,0.028181039136869472
2,0.5905907556411109,0.27102135569978786,0.05506641379893193,0.18181818181818182,0.005988927888848959,0.004604549425038963,0.5088031992185177,0.8306232945787483,0.2737015248008441,0.006282466084002361
3,0.644132699855127,0.33788782515852994,0.08237932039407787,0.17532467532467533,0.007228920330316001,0.004805247925015409,0.5874992165542979,0.7841951192981099,0.34096470951600544,0.013449733935148825
4,0.5019879320684134,0.6210396379615093,0.1397986951190463,0.28571428571428575,0.022305296241365354,0.014134188842985179,0.6637991834938183,1.0,0.6263765583965211,0.0
5,0.7657602785068912,0.6464306360616064,0.1706454462068031,0.35714285714285715,0.027515630263053804,0.0182424468454377,0.6393184602528416,0.8638162133658377,0.651729184537642,0.04664694776838075
6,0.6742702245256683,0.7471862670970528,0.2239147755543538,0.4675324675324676,0.04888520151818088,0.028570383701866996,0.7397810329593828,0.7761077581645407,0.7529585133177644,0.010594484123747888
7,0.6142617880878142,0.8210378362225296,0.26759356638741616,0.6428571428571429,0.07107850585210149,0.050065412052032104,0.6121897137151371,0.7166552877396911,0.8270952034410305,0.029183195340010494
8,0.3427989966449335,0.7308881729112472,0.22724247051957924,0.7727272727272728,0.057293685007498915,0.05055640416870907,0.47896373487025584,0.7428560674688842,0.7364550658448435,0.031409341624645364
9,0.5397686168581975,0.8662082822452281,0.23422523824299396,0.5584415584415585,0.058630668386745174,0.04015661623462694,0.6290243004845949,0.886982391598696,0.8730795003640596,0.02585895942436338
10,0.697781386282963,0.6702766766892971,0.4026348739116103,0.4220779220779221,0.13040914744875604,0.08458593427764495,0.6725922875917973,0.3107599746194667,0.6723925099773821,0.13316982087838974
11,0.5140349850049252,0.6759998310096506,0.19326754985762723,0.4090909090909091,0.04283079110396028,0.034980190119817914,0.5191312935833398,0.8024410050403138,0.6813670679757499,0.03086091707671961
12,0.510942975499581,0.6272867527843531,0.27581568263985323,0.3961038961038961,0.07139063582702396,0.05266855426269625,0.5826320893052978,0.4817484320824078,0.6310599071313325,0.03193725817270702
13,0.4287410984452237,0.27222745164670914,0.04469587111250968,0.18831168831168832,0.0027116301526659797,0.0034988524157607507,0.31214063226115574,0.9589990385712809,0.2750196393938062,0.0519729362578765
14,0.5542347991975912,0.30857419865185287,0.11252751771648416,0.29870129870129875,0.017765187758085017,0.01277801910509581,0.579244077324744,0.5234507207024623,0.3109546881011035,0.04823734810655158
15,0.5372924628113126,0.14628818129206803,0.1669725593653309,0.1168831168831169,0.027025433334867413,0.021702977638912106,0.5241709085237599,0.058108256045304896,0.14451919459337642,0.5181844303537144
16,0.675357426564347,0.4177004740688061,0.46629925962674795,0.34415584415584416,0.1733062523999999,0.116037338985149,0.6512990736381769,0.06824074933872476,0.41301932048961876,0.23133905008724348
17,0.608928580501427,0.3454254881634694,0.16264699633615692,0.2272727272727273,0.03185481764351631,0.020273318164040068,0.6697188573586601,0.40118969770502977,0.3474738805932359,0.05053160794596761
18,0.7798885070848823,0.5711784794145227,0.2154993865755901,0.27922077922077926,0.04232511725838933,0.02777754933112083,0.6538040748858779,0.5735123297923093,0.57515757974755,0.02155605824012439
19,0.6760411346746374,0.6119394781621438,0.20077443894582442,0.34415584415584416,0.0446259982817462,0.032144831280484384,0.5936877345773052,0.6799083965838953,0.6165537090653603,0.035468266579029746
20,0.7617954339851646,0.5364633853021161,0.4147203932710026,0.35064935064935066,0.13454582547869204,0.08438793558576171,0.6973166105883001,0.1942811935662468,0.5360926100325809,0.24330191180942645
21,0.6849008039682388,0.6256359521003094,0.6021104127565854,0.4675324675324676,0.3197301924192127,0.19747331050278563,0.7123320116524234,0.11601776460202773,0.621844530037647,0.3500106044007229
22,0.564579856722652,0.24497192423108846,0.20243340303681662,0.19480519480519481,0.03268579667003454,0.02961844750093032,0.46253813244892866,0.15548996332259662,0.24450951152313,0.5185521960746188
23,0.63816284740377,0.3635129657541046,0.2941567096156943,0.3116883116883117,0.06946381564406849,0.04932605300882568,0.6067515335953123,0.1706070326316364,0.3629547831848486,0.20263760383428273
24,0.7897378784917467,0.6829805503986727,0.1916974834312627,0.18181818181818182,0.02573677606837538,0.018934385365824796,0.5734498508238199,0.8193204133002306,0.6884345080366846,0.10775873238532538
25,0.6608274592515014,0.3193068478505641,0.1825821825855895,0.2142857142857143,0.035004314670341714,0.02528554682121772,0.5890381456647499,0.3047743736506784,0.32061823198476364,0.15218705777082198
26,0.6659281986212723,0.1339233470607221,0.041838196784518916,0.16233766233766234,0.002082339022715672,0.002301802901851574,0.3519906358293038,0.4427174258198784,0.13525932961678117,0.11202645312827
27,0.6761827849482823,0.7502906258930757,0.1849680365143651,0.3961038961038961,0.031407273398810436,0.020521271803919727,0.6516457599669969,0.9524450223361701,0.7564813564700337,0.012360511662111509
28,0.6366934924180466,0.6513492006277367,0.17042123761804528,0.36363636363636365,0.028636314117780812,0.021248618622378476,0.5700350348386576,0.8729718493119246,0.656699290233485,0.010765256828128483
29,0.43316767255674626,0.667619726889757,0.7210649867721525,0.7272727272727274,0.5467333189147473,0.39884424919654576,0.5955543248221392,0.07933887305154086,0.6609853301415394,0.6793893555554296
30,0.6892624034769256,0.7368919092701559,0.6502060671081294,0.5000000000000001,0.35538025272597756,0.23545576356880232,0.6606605309323985,0.14740017666685828,0.7341702661863158,0.4691706376737859
31,0.6481081276999173,0.5341449715192425,0.5003962506471457,0.5129870129870131,0.2166193467260446,0.15288690794145848,0.6159095316559231,0.12402659271662281,0.5313341622923514,0.5336966309295884
32,0.12596698527876848,0.6210949746832355,0.6020824004912891,1.0,0.3349186238507894,0.517670159542194,0.2513378338401394,0.11355254867396863,0.6171954899297334,0.9999999999999999
33,0.22640867732702208,0.7091161803040535,0.604204008140293,0.7727272727272728,0.38417997210950805,0.3662674372006009,0.4424615227857822,0.16004546708096207,0.7071041709648455,0.697464829145727
34,0.3615852392292157,0.6804120912828742,0.7144851792622483,0.8506493506493508,0.41877288400224294,0.4273311840241415,0.4097417848576567,0.08809305587958932,0.6743483479778976,0.7990025662925833
35,0.6195751495333669,0.8288662687358499,0.845567950180608,0.5974025974025975,0.5580933637801135,0.38749593670343324,0.6285537211578379,0.09794897147251319,0.822298812758689,0.4854415083423849
36,0.7434280175565074,0.6695486018618833,0.6020686889095606,0.4610389610389611,0.2888284474459712,0.18870002652234846,0.6702877238410567,0.13988522911955215,0.6667577695276857,0.39881246721488545
37,0.6225902032535736,0.712461469397483,0.5869426492178422,0.37662337662337664,0.2810979693650957,0.19736105879762836,0.6199918373504281,0.17293870519996202,0.7109873878953998,0.3468665792597271
38,0.44666963265147686,0.7211615272486892,0.7142662518606921,0.6298701298701299,0.47913355101989247,0.35492079243257735,0.5855468780563469,0.10713625606419219,0.7161460477517468,0.4358731515790384
39,0.45749997778748186,0.7117261183820495,0.7609497571185933,0.6103896103896105,0.5451801019883179,0.43285936656945057,0.5426852312287435,0.08263504645506076,0.7049208416280118,0.4937067944714914
40,0.5483135121535477,0.8170208168483238,0.7383541758410902,0.6233766233766235,0.5644592079061501,0.3583881330286172,0.6925141841134038,0.13942751341596182,0.8134937673040862,0.5149815417159594
41,0.5306117809609922,0.38028909000483785,0.3647688403400468,0.16233766233766234,0.1288680959141538,0.07748549343487675,0.7290772051573846,0.11356029677792456,0.37803968079170225,0.3467501565929769
42,0.4280581035145731,0.754241926228677,0.4828022118750283,0.6818181818181819,0.24008503440129753,0.18330814645360954,0.5655762734600541,0.2826251909556584,0.7559862845521158,0.2564697234470959
43,0.49205597745314356,0.5657240209581091,0.40412386846514503,0.5584415584415585,0.16465406940184152,0.12257293112827343,0.5805703719793315,0.22749577920568093,0.5661406952034093,0.25245857722315557
44,0.5523960517086112,0.5066187684669015,0.48956499962747474,0.5259740259740261,0.2153633913615521,0.14495481834896357,0.6483384422162032,0.11338949153669314,0.5034959462598083,0.3924992758955928
45,0.7495306347236724,0.7346966785928349,0.6617763826762312,0.5324675324675325,0.342507288449424,0.23931855646639827,0.6236081836417194,0.13993917516159532,0.7315955423035821,0.4222165944818422
46,0.5588376502451312,0.3537983987039671,0.3329986563992593,0.2532467532467533,0.11643675958791033,0.07295584929344982,0.6971832562540069,0.11892076540766067,0.3519064986725331,0.30422490481561243
47,0.5978920944924214,0.7521286871098597,0.576107987516889,0.4090909090909091,0.2964356382093111,0.21829906383965864,0.5887142050660499,0.20253774158907834,0.751688217464378,0.3782918906899264
48,0.5311199199563187,0.4849297112559324,0.5043204497734385,0.4415584415584416,0.19301669558789256,0.135463142760436,0.6193714986003223,0.08980286848882357,0.4807803804757448,0.4664897926367187
49,0.5708709859493676,0.44497395071677526,0.32928706640631156,0.3051948051948052,0.08314385297985619,0.05813151224195333,0.6181510052726955,0.20808168756947804,0.44505412728824917,0.37780876517658013
50,0.5960718806432669,0.6859092890774796,0.5392232558400469,0.3051948051948052,0.20761564635768817,0.13183656074628383,0.6901300467578215,0.19087496789299296,0.6851690349284536,0.21399330759754662
51,0.4587201415108454,0.42112876381932196,0.4342098157282994,0.4545454545454546,0.1807148383316699,0.16818670192804916,0.4540456783771781,0.09174209913011389,0.4176546284954479,0.5313284888713042
52,0.4583202761317239,0.5938095624368023,0.5554467691485924,0.5974025974025975,0.31277227227543003,0.29364673062281066,0.4500566414948894,0.1252809501306334,0.590703758032602,0.5494932115830237
53,0.5257858629400974,0.5699977294456815,0.508695502969367,0.4740259740259741,0.23045706239257266,0.17784210067516057,0.5589475533652809,0.141286255642524,0.5677442857271164,0.42656462584408594
54,0.5470498178657742,0.5426637191842885,0.47587080137948706,0.4350649350649351,0.16012369508561158,0.1193749636639442,0.5795695709513101,0.14716906091234966,0.5407682077507497,0.39825749042795955
55,0.5327238674752904,0.6002193994127952,0.4462385770906338,0.3961038961038961,0.2114665054296783,0.1440427186602352,0.6399762217665822,0.21176024717559538,0.6002305868349602,0.3666795795583585
56,0.8522796405833907,0.7935983097050435,0.5784520601131975,0.3961038961038961,0.24597049405805999,0.15474634147177174,0.697624538254978,0.22418692513609462,0.7938421875753282,0.3035719256648987
57,0.6082115649420682,0.52186823603689,0.5350399224320141,0.3181818181818182,0.26652023596719643,0.1593720623036302,0.7369032931136399,0.0945786506324896,0.5176581116571803,0.24666332784554784
58,0.44479757574084633,0.25854955284218045,0.2907316041854537,0.29870129870129875,0.08689879103053229,0.09383064867392155,0.38337965619182823,0.06452481372221569,0.2555788894481124,0.5849030726773089
59,0.45438856364193214,0.4733190614963342,0.34726290745579225,0.3246753246753247,0.12388396362391275,0.08704420916669327,0.6170260405139489,0.21278432670730807,0.47346900743758025,0.3381892912296913
60,0.646119675673578,0.6084028290608946,0.6092845665488045,0.4675324675324676,0.313117442784517,0.1841940478401143,0.7504393445991898,0.10274489703955791,0.6039615501798845,0.40919160681421524
61,0.2520805240091383,0.5139499530915224,0.5573442948934118,0.5844155844155845,0.29748294421808963,0.2991736830008728,0.41644642810760313,0.0773412574037598,0.5087673554992442,0.48478673894363317
62,0.4466601282699051,0.6858072877952547,0.6131897366415017,0.4610389610389611,0.3811778438840365,0.3163037214039513,0.5165989547884438,0.14212971887251286,0.6830501406784811,0.32536626237927735
63,0.40556934333173233,0.6362366893571423,0.6406457919412649,0.4025974025974026,0.3860937908845681,0.265857654103256,0.6337798410751869,0.10118647656973445,0.6314778355854633,0.32024101248529824
64,0.43084880407927584,0.6541178649568593,0.6285590041505477,0.6623376623376624,0.383389934967145,0.3232088054935749,0.5076353663119179,0.11675364013321621,0.6501800637429528,0.6383054999641169
65,0.5511052484226221,0.8768807972411915,0.69484913119569,0.6753246753246754,0.394651658437585,0.3062792703561466,0.556206947674778,0.1902908425493497,0.8757606294055783,0.6103876551629194
66,0.40497882826972587,0.7158384555088905,0.7014778360565285,0.6493506493506495,0.4748888415047102,0.3960743092877261,0.513857709545678,0.11062983232811208,0.7110980597103295,0.6035288915740255
67,0.11773850135697483,0.8273740154238132,0.9336582649456796,0.6493506493506495,1.0,0.9999999999999999,0.4194488593692656,0.06653036428862469,0.8177267215900247,0.43109441826841544
68,0.4462573559298647,0.9184472579455232,0.8562306758525233,0.5844155844155845,0.5764762215626744,0.5662341434860052,0.4279534579139636,0.12892731473939206,0.9136987912850325,0.33940668121587875
69,0.23885211245968663,0.8217502213805709,0.8072258396068115,0.48051948051948057,0.7086629031477676,0.5005715312508624,0.6171068669363825,0.11042199526955826,0.816241395935823,0.2657372301054122
70,0.24428771698418872,0.8563101323863799,0.9150616117573854,0.7207792207792209,0.7569090948575872,0.767101675171828,0.4130799606780875,0.0832343001742974,0.8481323984004243,0.42241321369522183
71,0.15596221129193133,0.7219042291190055,0.7223827832075469,0.6493506493506495,0.5582032358090302,0.623683815704932,0.3693875818157178,0.10376859291757884,0.7166475045037544,0.4490323863254348
72,0.49066095721299086,0.4494279675079182,0.48105168398032666,0.48051948051948057,0.26034044954287744,0.18459109619585015,0.6132613539296796,0.08076284654139126,0.445118342745578,0.4911059032787845
73,0.45171758122862415,0.28705462158348066,0.16125590036725423,0.15584415584415584,0.022493715254895724,0.021877227912603225,0.42639207450112104,0.3066134814745576,0.28831514145302756,0.5057171870132233
74,0.32241239636586105,0.08627211269283686,0.05545519869096109,0.032467532467532464,0.0025773021140129146,0.002360048622399606,0.41051426432284505,0.1837284382870809,0.08660179157158822,0.5534808932195457
75,0.33831679935133396,0.3039218642573247,0.3121828331799597,0.12987012987012989,0.09528870358895804,0.045505658796660485,0.9243741377269913,0.09085737268600746,0.3014618652106184,0.34481631062825285
76,0.33261595957639234,0.10768566604179108,0.05938671884931347,0.07142857142857142,0.004163607385992141,0.004218957583522287,0.38988408434029986,0.23953165928483416,0.10830277144283072,0.6566159704709782
77,0.38224692013000194,0.3697181469787146,0.2903367213096444,0.26623376623376627,0.06771670532183643,0.06092191115982245,0.4695077601537266,0.18171192139454956,0.3693810238076693,0.33920463131989287
78,0.39449955568304607,0.4262986564617051,0.42157770962466684,0.34415584415584416,0.15322015464787112,0.13548507769619925,0.4804485842652367,0.10475653215013847,0.4233699641897931,0.45278352684630807
79,0.30944237354819426,0.08915445337015929,0.09580080354834798,0.09090909090909091,0.009290835040756198,0.008527888455697798,0.44280195262010674,0.06801990351721682,0.08829796997488036,0.6892546636971654
80,0.44965972382190655,0.28413451561027664,0.2886086457419388,0.14285714285714288,0.01956168662404533,0.015228159406466945,0.5366262905228579,0.09363124446555138,0.2819448078958726,0.3425179602241462
81,0.4844690070081753,0.23136526035967905,0.21824692376210453,0.14935064935064934,0.052919609514008155,0.026522537107864782,0.8677790429564476,0.11328585915703748,0.23012972764937895,0.41983882079495577
82,0.37155597762370174,0.10399797872220298,0.1336466924781315,0.15584415584415584,0.02054503696877194,0.01944511941587449,0.43832500568892707,0.030845332211493326,0.10215461152267184,0.658970690103718
83,0.4587375481026602,0.2030043543615727,0.09934434612450778,0.13636363636363638,0.00774997628597707,0.008169898819382005,0.3838909468293343,0.3377597039767145,0.2042527404890126,0.5043466109308035
84,0.4896108596391716,0.23847625975381317,0.264848584790497,0.24025974025974028,0.06699370854494983,0.06102114718249676,0.4631315193713997,0.06750146061751161,0.23585713344338088,0.47676883362256745
85,0.46634682582829956,0.1149924958652302,0.11835389275613258,0.16233766233766234,0.011907086825142067,0.010487088074800085,0.4655971048038993,0.08071776889175536,0.11406762511948927,0.5825811348392863
86,0.7128732456605756,0.811028380078097,0.8329384688804556,0.5844155844155845,0.5138199807621308,0.3598270381218557,0.622631492093926,0.0957514000564666,0.8044235574846059,0.49015143208408235
87,0.3746438262914825,0.5215299443321683,0.5348151361051844,0.6493506493506495,0.297102472362818,0.2279659870818984,0.5628538620862289,0.09449940771224147,0.517318253012951,0.6340899124882641
88,0.6350733112818537,0.7013591672209305,0.5677013870536192,0.5064935064935066,0.2481588445682849,0.1642548849368315,0.6605568050060355,0.17959711638167003,0.7001762607570582,0.4284625111545865
89,0.43549154680558366,0.613968549789256,0.7617290154725365,0.6883116883116884,0.4942035546040399,0.44900010907017973,0.4671696716229731,0.039349052329050505,0.6041904646383578,0.5916138719441318
90,0.4735590194151681,0.6680111424724545,0.654714461120176,0.590909090909091,0.4478051124208298,0.30089947222529456,0.6510408557166331,0.1102525607556063,0.6635871234076769,0.4955912822186675
91,0.6950833885664819,0.5643364612728423,0.5626649828549036,0.38311688311688313,0.2678215066074847,0.15315293652212283,0.7729136093778977,0.10380547640137411,0.5603000278276999,0.37032120590889983
92,0.5716061959380333,0.6551055154803939,0.6596176921030803,0.48051948051948057,0.4233070560941993,0.2644968476107453,0.7041110353979824,0.10132672182412816,0.6502054398627547,0.3620109270471847
93,0.9999999999999999,1.0,0.7401340047126964,0.4350649350649351,0.36588037348561864,0.2358430412959889,0.6806112270711739,0.22031288546491273,1.0000000000000002,0.3624543293364033
94,0.48986116407417335,0.398681284699325,0.297806288920792,0.2142857142857143,0.09229075511488087,0.06272837568540242,0.6378026231829119,0.20209911281161613,0.3986985043755586,0.2887621440086375
95,0.43172141398829444,0.31347741112132804,0.2858716523147107,0.35064935064935066,0.08657204538470388,0.07198642673936587,0.5126988876973568,0.1277079414057405,0.31208753390903754,0.43333772707710083
96,0.6074935522620083,0.4455499897534288,0.3132898149664545,0.24675324675324678,0.07407288296848269,0.05614050439742368,0.5662093856085286,0.22874468031187073,0.4460253785148813,0.28247761814582567
97,0.5938936511548237,0.6708120580188743,0.6454258083935152,0.4220779220779221,0.3337922594901954,0.25097310149612984,0.575661092919587,0.11644967059937145,0.666746375319321,0.38015322790282186
98,0.3385454052906708,0.6002607386109319,0.567124089344982,0.590909090909091,0.3225051113030188,0.2842443916796226,0.483029304684697,0.12203167322290231,0.5969530298383073,0.541786351950097
99,0.3845584726174517,0.7576854322246237,0.7642506104659658,0.7792207792207794,0.5028761884938685,0.5603804295312347,0.3705040598884598,0.1013450545573692,0.7519699240529726,0.7238196640368509
100,0.499689100662042,0.7632827364502428,0.7372806960678802,0.6298701298701299,0.42730262092839516,0.34223468950404073,0.537317561432696,0.11576449599315469,0.7585601401033911,0.4239484060739938
101,0.6909489867042834,0.8544306013266153,0.6995165108343504,0.48051948051948057,0.3806632657200403,0.2805234688008716,0.5886136991141669,0.17701430804335838,0.8527574348831737,0.41232678844241616
102,0.466298843684012,0.7451199178341004,0.7976842955402565,0.6558441558441559,0.6117702532023499,0.43523554698048766,0.6121873281997685,0.08233586440652974,0.7379572692626571,0.49678122944233577
103,0.5111328237600411,0.9521644468195649,0.8393209567656275,0.6233766233766235,0.5952878556916474,0.4838830229812819,0.5288381622367988,0.14948164792782936,0.9486515125932519,0.48305886924812763
104,0.5849994726234659,0.5643092396947823,0.4238412998140296,0.35064935064935066,0.13300200996994854,0.10195093125822817,0.5617601379292655,0.20656064596536294,0.5642216974695246,0.32725723954649905
105,0.5047973404162022,0.5274454318678276,0.5142459536084498,0.4090909090909091,0.2783971780642931,0.24018391356226815,0.49451297846192516,0.11069752442223207,0.5240472168239456,0.3702202987093298
106,0.5694074261915617,0.722535071892793,0.6162510168785629,0.4675324675324676,0.38357697401639673,0.268838654176385,0.6217067915719489,0.15983619917861663,0.7204665320971747,0.419441921612076
107,0.47583256534633034,0.8408066742367383,0.8346080880109101,0.6103896103896105,0.618406628368473,0.5008703022081834,0.5309667398891073,0.10700168135679511,0.8348926676396832,0.43863436606780937
108,0.32110962392623,0.6354854732161882,0.6546026380182234,0.6363636363636365,0.4705168970270358,0.4387495811221986,0.45371261594645523,0.09390740649814239,0.6302490984157538,0.5939895351146313
109,0.3686744423386149,0.41173529183868246,0.41498818413153016,0.18181818181818182,0.19600143058526073,0.11667418513502383,0.7392613315822547,0.09859290024074568,0.40865465011107804,0.23674873651348682
110,0.31047637084450985,0.49309032161752897,0.47809982863942485,0.29220779220779225,0.2784288969503117,0.1756713878079274,0.6958356280958085,0.11205660537786016,0.48999916756705586,0.3490610376320673
111,0.4105269657403773,0.5389629450067764,0.6113729111501641,0.29220779220779225,0.3165980347898253,0.22109928789181524,0.6238285150396674,0.06425097909785837,0.5325664339254443,0.17291486083411517
112,0.29891190614466423,0.16590272803426134,0.2335954910458536,0.18181818181818182,0.055679408267633325,0.07642687336872388,0.2904477513208892,0.01010027237605346,0.1620869476301281,0.49176969414712185
113,0.45486382938981007,0.5560096018452935,0.517958776677129,0.2337662337662338,0.2570968542562972,0.1587629446202409,0.711838214600972,0.12621540245611867,0.5531694377312177,0.22642728382092808
114,0.2960466067635116,0.29995051271421835,0.27817609779085745,0.1103896103896104,0.10125867272143119,0.06977373347826055,0.6290702686135424,0.12179331102928886,0.29848168835477584,0.30689286272536304
115,0.3492959600625173,0.18971975731778998,0.26506810897901156,0.2077922077922078,0.06057036766005936,0.07669628436515195,0.31917019809672953,0.011319420741441294,0.18544670604534141,0.5516585974066868
116,0.4028116664750795,0.6246953320759039,0.5833380495944084,0.4350649350649351,0.3343985225456484,0.3542672564517747,0.3925442061485103,0.12620790362855155,0.6214554511272748,0.3274839328974278
117,0.5028795512088423,0.5133221443249826,0.5523205013008224,0.48051948051948057,0.2451382320732216,0.2385541144640631,0.43211174234408556,0.07968683919399344,0.5082974124003771,0.4807024266122903
118,0.3936092216214756,0.32763141955840674,0.33134810194835784,0.18181818181818182,0.13936429916162404,0.08494865867876773,0.7190671835233932,0.09600253823053961,0.3251494774734293,0.37426427690855496
119,0.27824602759938155,0.6739408143094016,0.6570472377113294,0.5584415584415585,0.5043135666584099,0.4428910373899369,0.48524268058948145,0.11204903468217992,0.6695866639117989,0.3390862427526135
120,0.28944656391516477,0.6207201641237997,0.702319502319808,0.4350649350649351,0.5311970145422896,0.47952596988161206,0.47056513768044644,0.06526551842297545,0.6134170713954673,0.23111284767544465
121,0.25708275049527696,0.5511179397505424,0.6253643766027442,0.5779220779220781,0.36342251032360473,0.39445206373554115,0.3818368056086951,0.0641992743588024,0.5445693178641687,0.4976661701906498
122,0.3248029654392025,0.6341192543908434,0.44686032422627464,0.36363636363636365,0.21884361946763933,0.1554333454102222,0.6117384969463737,0.23539909228818556,0.6347089295037359,0.1550403005064726
123,0.2703484972092355,0.6046593850767407,0.35084579072011207,0.3116883116883117,0.12769235994918163,0.09262409166201895,0.5962923567710215,0.32501204112921267,0.6068356940035641,0.03835468852669691
124,0.35920123285253347,0.5581868302883043,0.5592302380934283,0.4090909090909091,0.27132837637908386,0.20825545418632502,0.562527197070869,0.10219322034439116,0.5541075778296737,0.39359960396921767
125,0.35102891881934595,0.43133835700453294,0.3444238289764499,0.2077922077922078,0.15035931166215957,0.10788309810984034,0.6039629628781743,0.17829324268566232,0.43077651153639035,0.2716085598440987
126,0.3160112934757816,0.4381779646489752,0.4734111049441551,0.3051948051948052,0.2538984646899335,0.19273512401052842,0.5692674846207658,0.07797935862298522,0.4338285319755435,0.38414474116196706
127,0.3113917916228438,0.5446637521379065,0.555691117202291,0.34415584415584416,0.2716033289264033,0.21031178076983376,0.5571218363261274,0.09633282932393267,0.54035953036745,0.26242730495943456
128,0.3512662302926509,0.4865092512288871,0.5991790130013154,0.38961038961038963,0.39026762789093755,0.27564490248326634,0.6165396970354896,0.041234636541150116,0.4789363423294114,0.25319908358218907
129,0.2061775125307429,0.587463339047337,0.7527963105010491,0.5129870129870131,0.7078646673737106,0.47779488962667427,0.6483819059532918,0.030733836620327915,0.577137646578454,0.31009865428814876
130,0.21580247320732615,0.3341454878308374,0.39057755186063237,0.2272727272727273,0.10657774187974305,0.08614955042938312,0.5294938249989385,0.05485254349377411,0.32975405001851715,0.4558287503119514
131,0.2214131948351007,0.5365300300288381,0.643542333438561,0.4610389610389611,0.46907001214319805,0.3482255589754622,0.584128982198187,0.04849309156764603,0.5288517837932399,0.3920970210497567
132,0.5787832434686341,0.7108324336848427,0.5282226586591474,0.4675324675324676,0.19285039205476578,0.15659296836498238,0.5282792773209238,0.21442868377127428,0.7108235360051708,0.33482241533599094
133,0.6792214647649532,0.9097363825023077,0.8005349180885932,0.5649350649350651,0.42987493118014364,0.3139703316194964,0.5945343359886198,0.14984061410890598,0.9064219979575057,0.4961288133461637
134,0.5406850341397703,0.68495015241704,0.7048595836993771,0.5974025974025975,0.4690100574414308,0.2748952884052527,0.7543778946445426,0.09452288279745619,0.6793287790941724,0.5313229878742065
135,0.5167625307856111,0.7020934353551321,0.6221441190618314,0.5779220779220781,0.30744312347375624,0.26308349064443165,0.4991130474010626,0.145509857107199,0.6994290384495967,0.5013457505563917
136,0.5514086125660308,0.7542630768856654,0.6288630892652479,0.48701298701298706,0.3490465046676395,0.27504110303836315,0.5468503546971077,0.16890096751237438,0.7524972690959362,0.26563933322306826
137,0.52210527268504,0.7547183045806931,0.4743419599219579,0.5584415584415585,0.19155875049169196,0.14147570566497045,0.5859918619329062,0.2914655011370513,0.7566464043664737,0.20084097399466025
138,0.5077021481468263,0.744160051903698,0.7252638883220204,0.5844155844155845,0.38539807932186215,0.270357503855778,0.6211073786170167,0.11263150162395591,0.7393552330611642,0.4388414707411783
139,0.45586364713934746,0.7717379221566885,0.550773573279989,0.48051948051948057,0.31493766051843264,0.19729563827261762,0.7015077339523447,0.23316062272507732,0.7722609351089083,0.1687743950960639
140,0.6040715227912165,0.8976024205933436,0.5665678450025781,0.5259740259740261,0.2494360825660659,0.17526911074093937,0.6192127995397526,0.29291129318981823,0.8998053814397589,0.16046296615763
141,0.4860589310142044,0.5370182450324241,0.3463766658427809,0.3246753246753247,0.11500851705004801,0.09038556763709125,0.5462456371583873,0.27098049646293587,0.5382619724440404,0.12847461643790173
142,0.4880844648794497,0.7755269728455872,0.4359448598543832,0.4610389610389611,0.16213907187482324,0.10508576176203244,0.674192643434925,0.34906485281135535,0.7785143912745963,0.1503540916777935
143,0.5583691069472855,0.7837286857788438,0.7585287353123817,0.6103896103896105,0.48870561451386174,0.456952143518076,0.4523425061063882,0.11521229783144887,0.7788314747290979,0.4530658082055401
144,0.4813825117117875,0.8530640490186574,0.7992360658491654,0.603896103896104,0.5636121407023009,0.4127038423504519,0.5931418935741504,0.12681862971607322,0.848538396189225,0.49968332245123476
145,0.5939355526843618,0.8210580529245857,0.7915764598752525,0.5064935064935066,0.6317912043710363,0.38244473296900877,0.7292000870050797,0.11677350161769806,0.8160234495739922,0.37032942199024477
146,0.5732029887029951,0.971072039753136,0.8284918924813096,0.6558441558441559,0.5250639018689087,0.39069688425418125,0.5827562220179969,0.16197096772523223,0.9682566292693898,0.5275888881324183
147,0.31279501447682956,0.6899871314113799,0.857719803503077,0.7012987012987014,0.7462757536708822,0.6758447146178953,0.4690000799652339,0.03884430768590574,0.6789308497399619,0.6425673313797213
148,0.44604909023819383,0.6022876463605555,0.6664382320526894,0.27272727272727276,0.35433302825582963,0.2769095060044556,0.5518568038679431,0.07148048119044492,0.5957190274740619,0.5673145647813518
149,0.36820968361202777,0.6561591493864514,0.6787896229259321,0.4740259740259741,0.38292830875728023,0.3991819791584876,0.3998833226984805,0.0926778001495071,0.6506555799852937,0.3807214690733875
150,0.4360267421672198,0.7995393206608655,0.7595463710464128,0.6883116883116884,0.44836611875120785,0.4155009344534569,0.45687289862285657,0.12168438558646133,0.7949837484882768,0.5248366768871127
151,0.5865329470723198,0.8137555103634623,0.6701693259421441,0.48051948051948057,0.3349971863692772,0.21459398156806903,0.6850170228275838,0.17426767318389264,0.8120618130067414,0.35567109208688685
152,0.4399424487874283,0.6227601337079056,0.41010313379241814,0.590909090909091,0.16766789298801477,0.13504548589567505,0.5327408378889981,0.26520745861140466,0.6239894616876567,0.2473711398299484
153,0.6719576685424876,0.18043537230883946,0.11772496511187928,0.13636363636363638,0.013280978376714318,0.013461963004126797,0.40445424054118095,0.22350075770559968,0.18093554740083945,0.4443852039387087
154,0.7023860774627008,0.6516955168632164,0.4178618652233083,0.2142857142857143,0.0848620391225377,0.047677856578853046,0.7791852683383594,0.27838583202169753,0.6532117699584846,0.18853714180777933
155,0.5684973687530813,0.1252681123433198,0.05081674585335724,0.05194805194805195,0.0034198183975449707,0.0035002880811980074,0.38289285966756154,0.34669395192598584,0.12633232595423116,0.399538260555095
156,0.5588696574995057,0.28565150512055676,0.29730891093079925,0.06493506493506494,0.10635844268107443,0.05314233943972192,0.8836212268150709,0.08658754811541175,0.28320941014300727,0.299084841609312
157,0.6234799294085894,0.37527783624482053,0.3737240405352006,0.2337662337662338,0.12176394219623596,0.08904840497132911,0.5908623355641949,0.10168991825384732,0.3726202399429757,0.3326718895932551
158,0.6830228141043125,0.34261847330373413,0.2941696777184462,0.14285714285714288,0.08359868573194412,0.05619479477511235,0.6446965050229873,0.1488388041017813,0.34162724696492747,0.252300422409527
159,0.5533769694534593,0.2072150886366474,0.08606880922986539,0.12337662337662339,0.005993793556865155,0.006923056696519447,0.34879086300187434,0.40720378761503295,0.20875801765758695,0.46460361630375663
160,0.5277034443177907,0.16887014389947427,0.07977418139435757,0.07792207792207792,0.005304072368960347,0.006435413449559318,0.33179375548022083,0.3324836637666375,0.17000367608232658,0.4834342420988497
161,0.5677455943817701,0.09811952625387707,0.057710458305587534,0.05844155844155845,0.0035808515828575846,0.004012794321242567,0.35469928947152735,0.21463173833606286,0.09861012103835413,0.49971118656846697
162,0.2933779146311072,0.3807162045317726,0.38888528837090597,0.27922077922077926,0.1496690714017726,0.19865329818510705,0.3020271669690261,0.09401729420948174,0.37770022849157914,0.2849131617854738
163,0.2620788544260485,0.3379537154597284,0.3835291492963872,0.3051948051948052,0.1400996343606586,0.18528243621846696,0.3033214269079347,0.06295960034532155,0.3339399484488155,0.31070492008546413
164,0.538480688233346,0.49605322481886216,0.4532086549842349,0.4675324675324676,0.20105061047424977,0.1567288798616648,0.5525327042369255,0.131947544282493,0.49379303096372607,0.5193783612615428
165,0.5224841172188702,0.6418379281552916,0.690632748729614,0.6623376623376624,0.4050393616434461,0.30720671692835483,0.5704249376843654,0.08036757592193611,0.6355496434780449,0.593601675237443
166,0.31691580612269143,0.29953487566925074,0.33795366787985975,0.24675324675324678,0.11660891676902002,0.1020135893187132,0.4856723656980431,0.06417580093313147,0.2960508685216187,0.41524656676248556
167,0.2973979743130738,0.20247890829631046,0.22940530814095422,0.2142857142857143,0.0532814451097493,0.04878467569599235,0.45971291854684043,0.06150339377558006,0.20009119726843,0.6184830922573197
168,0.38679465371963795,0.5302728955525627,0.5169758105425781,0.5129870129870131,0.2557928014022893,0.27857876414119154,0.38025805719238914,0.11074034818593881,0.5268567448518331,0.5218030340168708
169,0.37954073090738916,0.2635154624115934,0.25029316566714993,0.15584415584415584,0.07927610462415188,0.0479456979756013,0.7204889064105124,0.1128740717576216,0.2620482602048942,0.4393861975891028
170,0.44613443255223173,0.35216302822585377,0.28326659264955256,0.2012987012987013,0.02744805689948146,0.024390552351706313,0.4711071340000748,0.17207623331423338,0.35166906034744466,0.3644314738223609
171,0.315241600141449,0.4516681661971909,0.39131897786267056,0.35714285714285715,0.1626686926919679,0.12936640400458063,0.5401426835563882,0.14940529340975872,0.4502363351718841,0.39993503015016413
172,0.37110785889723397,0.26226686301852564,0.27534673369334745,0.37012987012987014,0.08067456371858582,0.07503737681507913,0.4530359964588147,0.08353277985613411,0.25994559805911505,0.5970659488723756
173,0.47953084902622234,0.5633604162860515,0.6110474442867792,0.48701298701298706,0.3767434516881155,0.2477680179786734,0.6660780788857357,0.0775578908868082,0.5576732537214967,0.4522359744165086
174,0.3739179804292926,0.5294441207903169,0.549049442400051,0.4220779220779221,0.29202018900716914,0.23510008194914836,0.5338762103593104,0.09106715048002179,0.5249639144717543,0.3548419764337007
175,0.538480688233346,0.49605322481886216,0.4532086549842349,0.4675324675324676,0.20105061047424977,0.1567288798616648,0.5525327042369255,0.131947544282493,0.49379303096372607,0.5193783612615428
176,0.5224841172188702,0.6418379281552916,0.690632748729614,0.6623376623376624,0.4050393616434461,0.30720671692835483,0.5704249376843654,0.08036757592193611,0.6355496434780449,0.593601675237443
177,0.5785909506424515,0.6832908420320436,0.6033418835070388,0.48051948051948057,0.34159256608788086,0.22631258591012926,0.6606110723090582,0.1465997769021533,0.6807616702528491,0.37405921921499474
178,0.31691580612269143,0.29953487566925074,0.33795366787985975,0.24675324675324678,0.11660891676902002,0.1020135893187132,0.4856723656980431,0.06417580093313147,0.2960508685216187,0.41524656676248556
179,0.2973979743130738,0.20247890829631046,0.22940530814095422,0.2142857142857143,0.0532814451097493,0.04878467569599235,0.45971291854684043,0.06150339377558006,0.20009119726843,0.6184830922573197
180,0.38679465371963795,0.5302728955525627,0.5169758105425781,0.5129870129870131,0.2557928014022893,0.27857876414119154,0.38025805719238914,0.11074034818593881,0.5268567448518331,0.5218030340168708
181,0.37954073090738916,0.2635154624115934,0.25029316566714993,0.15584415584415584,0.07927610462415188,0.0479456979756013,0.7204889064105124,0.1128740717576216,0.2620482602048942,0.4393861975891028
182,0.44613443255223173,0.35216302822585377,0.28326659264955256,0.2012987012987013,0.02744805689948146,0.024390552351706313,0.4711071340000748,0.17207623331423338,0.35166906034744466,0.3644314738223609
183,0.315241600141449,0.4516681661971909,0.39131897786267056,0.35714285714285715,0.1626686926919679,0.12936640400458063,0.5401426835563882,0.14940529340975872,0.4502363351718841,0.39993503015016413
184,0.47953084902622234,0.5633604162860515,0.6110474442867792,0.48701298701298706,0.3767434516881155,0.2477680179786734,0.6660780788857357,0.0775578908868082,0.5576732537214967,0.4522359744165086
185,0.7934196477452994,0.5501854394067578,0.4957229554552444,0.34415584415584416,0.2090052895604326,0.11711628848389646,0.7886829412094823,0.13764036192052975,0.5478760038340333,0.27978820867994575
186,0.7241179383727062,0.2911579001145093,0.23299007042777686,0.08441558441558442,0.05043257448366126,0.028100025649151827,0.7776834919528196,0.17003575389734593,0.2907991185539161,0.2517627636532811
187,0.7993624532083258,0.7287172802922307,0.4995564179698155,0.2142857142857143,0.1605448529295938,0.08560667972296618,0.8294837868325312,0.24992353651937183,0.7296844425360778,0.16456281936445918
188,0.674180772961794,0.4665620703595308,0.41273862645226234,0.25974025974025977,0.1291308355757746,0.08035993955307531,0.7029164838034397,0.14246760835215921,0.46483654212209813,0.2862106255931455
189,0.79282931460906,0.32805641818010267,0.26765703921187556,0.14285714285714288,0.0658364376683139,0.0395433258480275,0.7235639830800251,0.16571283854352226,0.3275008900562688,0.25111330680771815
190,0.4331829665048995,0.3082286400578145,0.3045396811521281,0.2012987012987013,0.1063412518723285,0.06940079729971921,0.6670003860555296,0.10254439800973691,0.3061305448336844,0.43728826088957956
191,0.5711454845034983,0.4651497795546744,0.46436646290598943,0.19480519480519481,0.2300218947812399,0.11029790361866795,0.9302515938662202,0.10233547741048515,0.46181043609424205,0.31349074814088457
192,0.7197554515676406,0.4777412049459361,0.3728856714911571,0.24675324675324678,0.135869914781247,0.09058791896818937,0.6532496930933608,0.18866647937421283,0.47733251941652566,0.234505514242778
193,0.6289920070242755,0.18657003612899054,0.09631284542192979,0.1168831168831169,0.007334882002350568,0.007605216781630935,0.3896617193125465,0.30916368020568885,0.18763730643369336,0.420012009708258
194,0.6645347261829168,0.1666175012635164,0.16193252736857588,0.1038961038961039,0.02761246969679346,0.01705705704786273,0.6869121997755635,0.10027710239382315,0.1655867660993704,0.3781912113012974
195,0.6010361633180145,0.2047023764448389,0.07349007709504282,0.09090909090909091,0.004085185664952343,0.004718735908370501,0.3462852703244579,0.46879339834604794,0.20641816793578566,0.3770561724622096
196,0.5397751306201531,0.2989500044959793,0.24683203410061927,0.2142857142857143,0.052301952630789454,0.040346719910009064,0.5533440061003567,0.15983447669706907,0.2983717665834769,0.4388819764066741
197,0.2883765394256391,0.33770783689499895,0.2911019940669613,0.24025974025974028,0.08157703651369455,0.08648587371746572,0.39134599986078783,0.14727844150112968,0.3366991695694768,0.40478469048389354
198,0.2996057459794007,0.7233693471681426,0.8032298076199282,0.7922077922077924,0.697963051634072,0.4403486159740266,0.6975344091107568,0.07112990315356726,0.7154064393328143,0.6464902114091864
199,0.35921983842113814,0.7405325053514523,0.782637734310566,0.7597402597402598,0.5255882295534567,0.6230817923362517,0.34488116292673204,0.08633788980220919,0.7337614185818877,0.6305009421873369
200,0.23516486386460744,0.8048131034826312,0.8742722851056637,0.8116883116883118,0.7652940889018015,0.7601065564676904,0.4226559111572852,0.07800982576445181,0.7966362045366888,0.5602124206542101
201,0.08025003507363615,0.35732103316655117,0.33150282180689883,0.12987012987012989,0.18360734290226371,0.14553674505260678,0.5423568545704384,0.12366553410934111,0.3555573789927115,0.12623268784156919
202,0.09341793789074371,0.5143732549051439,0.5403981386885767,0.34415584415584416,0.41541714313033185,0.30967498497296475,0.5813612571919418,0.08693481891537741,0.5097859184964885,0.20545904716128152
203,0.045424343351465946,0.3328191952023336,0.4312426982174814,0.5779220779220781,0.1952280619349002,0.20999705660227808,0.3855926368529082,0.02809295205062834,0.32677278058468967,0.6318340946981392
204,0.15592737314256577,0.4896602388229919,0.5396044656230884,0.48051948051948057,0.3522890252516178,0.3311564355536014,0.4494983053535437,0.0724396716768041,0.4844203758678376,0.4069861551063429
205,0.15656819988349413,0.6692333298215953,0.8917799107677787,0.8506493506493508,0.8101583918902578,0.8937537071949142,0.37488026646752914,0.02054740542568334,0.6560352767418428,0.7170392345743163
206,0.08920001685682177,0.49682759802587617,0.5007502845153504,0.35064935064935066,0.25209956946625356,0.26530926098876056,0.39543597812329573,0.09972106988614243,0.4931054386206226,0.20035481024397594
207,0.08792795837841039,0.4119306928356326,0.513035372416766,0.38311688311688313,0.24939648059780037,0.28310320311698794,0.3625652075568425,0.038206397683014814,0.40529219332871425,0.3343273364330728
208,0.06387757221121304,0.2663571327370895,0.3372787007568899,0.35064935064935066,0.1083548008723067,0.16336909696999846,0.2593614263431084,0.033890154865332534,0.2618406372889358,0.41466623603581304
209,0.11654758560417655,0.46806451370399793,0.5264869894464491,0.4350649350649351,0.3448503949630779,0.40477855648960487,0.34884800331302424,0.0663754560907916,0.46267385541338985,0.2584560241408885
210,0.1200383259477481,0.39361123071775905,0.5172994101752495,0.590909090909091,0.2952874921762038,0.30947648547188916,0.39736513927747963,0.02443814141716938,0.3861559105286443,0.47258259371111805
211,0.15373044720449702,0.4097900364242933,0.5196400471494447,0.4350649350649351,0.3165927179592419,0.2844722050731967,0.47272844198615743,0.03351849024285486,0.4028118722020167,0.4491856850082055
212,0.20347133404381734,0.5585439041364179,0.5670899652665384,0.4610389610389611,0.34247551138036925,0.2830915595771771,0.5187202279378557,0.09795336585546854,0.554217987803633,0.31282868623934923
213,0.15695474135596388,0.5407863242411534,0.5670536743224995,0.4675324675324676,0.3662396290972673,0.3191180537308663,0.4893159247806325,0.08772695298853667,0.5359993305237857,0.25472607113338147
214,0.13179036346707662,0.4434456054784058,0.5556508812711194,0.3051948051948052,0.4368375525194984,0.28953065228249686,0.6607478896839264,0.03662630693482605,0.43616378112392995,0.15196005545436503
215,0.4174778317674773,0.8470488772433695,0.4510666680095031,0.3246753246753247,0.21201977780707604,0.13950119473387576,0.6643507360894745,0.3813558982821085,0.8507408092500823,0.08660711368913757
216,0.13264520981482464,0.5099628587671657,0.47636406804011716,0.4155844155844156,0.29613433471314465,0.27704893385280804,0.45180505612111704,0.1247161995136209,0.5073264669002981,0.25180982365970184
217,0.07744660694389494,0.3510316533683049,0.4051615504292104,0.2532467532467533,0.22910520062905013,0.1611692749408386,0.6182430706595,0.05840568678907965,0.34661122597006466,0.12903281226631494
218,0.11924171546101114,0.5624784538515131,0.6699511542387258,0.33766233766233766,0.5928025354800672,0.4462715001830232,0.5754587926739504,0.05049279754006214,0.554610838071938,0.1808660782046097
219,0.25227691151146125,0.6294172341219377,0.5657514784161132,0.5649350649350651,0.31215963217364423,0.3941921845115441,0.3202919728089692,0.13963299148901204,0.6268076328569293,0.4802625571142108
220,0.19058373790686012,0.5569836093967313,0.7027232198681174,0.5454545454545455,0.3751919269774716,0.4397252767316118,0.3494723673265062,0.0348387207771757,0.5476431334589466,0.3262148199539987
221,0.11272699815586618,0.4659470686453083,0.572006700136479,0.3181818181818182,0.35947549660427225,0.31485424719691063,0.48648363049053495,0.04207749523164789,0.4587673998269676,0.15966354816439388
222,0.1888883462995833,0.43665591393172776,0.5272941329735443,0.3246753246753247,0.3170225276881799,0.3182499576699755,0.417325495182903,0.04645280755873793,0.4302699373013161,0.21588780804079866
223,0.3332749033585002,0.7020902628056398,0.7129141626486244,0.6233766233766235,0.5496055156241725,0.4768892087199224,0.4918408320472745,0.09888703783259961,0.6966418870391432,0.392612146068445
224,0.17332093632844903,0.352688177946831,0.4633083331524515,0.4675324675324676,0.1940699449538913,0.20636375837680082,0.3906842135020541,0.02464922217375992,0.34601771583930024,0.4611224840882729
225,0.19270954566128162,0.40799744448058245,0.5258818243546639,0.4025974025974026,0.3368266958451171,0.23743645584965334,0.6176262579832749,0.0293363858163892,0.40070109271658505,0.22099585356018692
226,0.15804544394081443,0.2202222019695146,0.2830556768319988,0.12337662337662339,0.1189195875170771,0.09223457780822865,0.5542606571815368,0.030291685752835806,0.21631600325925537,0.2583388852590235
227,0.29932019443613245,0.7385551237243108,0.5654250143455322,0.5000000000000001,0.3329299664925069,0.31379037144026606,0.4481296832061558,0.2025289860822243,0.7381322550250041,0.36476912026012565
228,0.3516190082131295,0.7177037189195358,0.32179579080962967,0.4675324675324676,0.11999652866601665,0.08748262865293173,0.5928003758962502,0.47724315666689054,0.7218751872705039,0.06787264396812143
229,0.21539449833273594,0.4684206875011463,0.32072013866698645,0.38311688311688313,0.0913376363372775,0.08825359763707905,0.434493224814656,0.24124244103310855,0.4691156019344397,0.14016178977777252
230,0.4173692529027865,0.7926991030863958,0.6761236625932964,0.48701298701298706,0.3981930350273575,0.34428041498102074,0.493612783739016,0.16057021550206602,0.7904199791701836,0.31458846447409566
231,0.15312676530656721,0.032130501391032594,0.01660154078866454,0.0,0.0009224458684315715,0.0017021070501655707,0.2483301408237077,0.14356135867728476,0.032421105712362744,0.83003950100451
232,0.2324091271706269,0.6104646340239842,0.3796953840158892,0.37662337662337664,0.1424967666304285,0.11923438710769953,0.5105364194531014,0.29131161761821545,0.6121473581434738,0.09553173163694123
233,0.2761076553510472,0.5048045903274408,0.2572448883482111,0.24675324675324678,0.08808884046369622,0.07834196849409215,0.47627209345153027,0.3846058992855349,0.5073244284564654,0.05941880796531012
234,0.21505835678967566,0.46101827141337887,0.3546315084663462,0.13636363636363638,0.15944219532656145,0.10187650368308818,0.6844842436290789,0.19379049777607255,0.4607639086661451,0.05218788853231381
235,0.21992771676168366,0.40562228701962644,0.29554499934975903,0.13636363636363638,0.11424268067217296,0.10705565925130323,0.4499732967374272,0.21236358112871978,0.40582419765812144,0.09528890958257116
236,0.20833589427973453,0.27061907816549197,0.18673328604216205,0.15584415584415584,0.04561769667774413,0.0371057930998978,0.5218376212763695,0.22145346009108274,0.27105406392322734,0.1597151953445813
237,0.2703326355242296,0.5544287552447106,0.35348672992878044,0.38311688311688313,0.1435017558956806,0.10264776189573566,0.6058055736500104,0.2771203551144169,0.5557943940781668,0.1330820197826478
238,0.3375730361922641,0.5425300945956623,0.3300471466815614,0.5779220779220781,0.12122172108685132,0.10079558285775952,0.5137122483295675,0.2984744785540645,0.5442025020859651,0.1391432569700488
239,0.4564644596059909,0.5104284267451871,0.5723438584842571,0.36363636363636365,0.37370848140749685,0.21402444383042737,0.7727507334527323,0.06748474142680772,0.5046131909142122,0.3754596499786941
240,0.6072830621770328,0.6471863624606738,0.5952779667774895,0.4740259740259741,0.2850383573243732,0.16884853966459143,0.7445795251769786,0.13167570022845204,0.6440995134949857,0.38573571889141306
241,0.47557954186891827,0.28816397658198567,0.22160243007193753,0.2077922077922078,0.04610130510006263,0.036706423041834385,0.5340046592613046,0.18374024971591602,0.28804839901461904,0.4321005517509188
242,0.4483367192127782,0.542132886310649,0.4692493274887282,0.37662337662337664,0.22999300783074325,0.15309583535145904,0.6563248671588447,0.15174326019803003,0.5404106708796698,0.3802270528349865
243,0.41105691513911424,0.6176683757504031,0.5758520555914114,0.4480519480519481,0.24883537802621397,0.3171922520192966,0.3167680739654204,0.12670591532747977,0.6144945833205406,0.2851368965062986
244,0.3506279081802147,0.5155892802277825,0.42552776775916495,0.3051948051948052,0.17094392822738352,0.16365521656638926,0.439838532156962,0.1686148182901145,0.5145291391683215,0.2854576385306412
245,0.3924865060683781,0.42037432689845194,0.4675473843609455,0.27922077922077926,0.22503295363016398,0.19585841909230264,0.4894892573562278,0.06932822058160332,0.41572584603433255,0.3737823267850221
246,0.3743230582061484,0.5105200060427235,0.5527682608539016,0.4025974025974026,0.3198095172901437,0.22541243762368118,0.6176240114322225,0.07780324548110046,0.5054034022088558,0.3940776506632275
247,0.4239576054114399,0.3353391489271772,0.34913225258315617,0.29220779220779225,0.1449229743570288,0.1157694819376535,0.5372394571174339,0.08752953225650767,0.3324644537175069,0.4071471432558026
248,0.43464417164529257,0.548440552568042,0.48970106723028345,0.33766233766233766,0.24854512258176786,0.20472541204626002,0.520393208344188,0.14078423677723712,0.5462684039945914,0.31248005621466124
249,0.4139707150695916,0.3844201473052601,0.21086759931210464,0.24675324675324678,0.03541874479465516,0.030480900153516066,0.48947522666251003,0.33353438303238614,0.38612777909225654,0.15999982425603348
250,0.5208032678477575,0.7050692151298438,0.6669068622145551,0.5389610389610391,0.3820194533084009,0.336547242872368,0.48338927948988436,0.1225274491179027,0.7011469539437724,0.44386831009195404
251,0.5050040745738763,0.6969484897981577,0.634933313052175,0.5389610389610391,0.30274583996503723,0.28435647938837266,0.44981830565474173,0.1355619283340923,0.6938014454444484,0.368293934068112
252,0.3680267145220818,0.1666003038224782,0.14868762527077173,0.05844155844155845,0.033550611544197875,0.04038867186367664,0.338003685344963,0.12381809500953145,0.16598612124765622,0.47474787123913137
253,0.6309793749366873,0.16803759322828848,0.053564583429895965,0.08441558441558442,0.002856062325208043,0.0034580189708954346,0.32991615435016375,0.4822250884727979,0.16961127583212698,0.2651058539134589
254,0.6173450445840011,0.13088912814783,0.04978701488783052,0.12987012987012989,0.002538244449837147,0.002994215740293048,0.3364984318452242,0.3740721384952528,0.13205042097478897,0.2403594338736295
255,0.6501137289172335,0.22491510019915986,0.08145637002292762,0.1038961038961039,0.005364610285589854,0.00571347195939662,0.37618573697285135,0.47992319775572,0.22675545858694457,0.15426247747813457
256,0.48260823453823265,0.6743090892088087,0.39057197888615075,0.34415584415584416,0.1433322988280661,0.09407404919774845,0.6645995554916063,0.3292611640922203,0.676720566900191,0.13075758246955108
257,0.5754330264385775,0.19604415717400395,0.09962979259301978,0.15584415584415584,0.009219588304245373,0.007592877000901143,0.4917574621389576,0.3197709781229806,0.19718671223956086,0.18849261094580608
258,0.6279805993854507,0.1492716784117477,0.0644881032047843,0.09740259740259741,0.003966405997588685,0.004495392731337577,0.3521001591035205,0.35020886754637004,0.1504177636460045,0.20549302691982232
259,0.5968646210910941,0.12361728830356827,0.07024184093268397,0.12987012987012989,0.004821183468634175,0.005100281441889331,0.37723260368989736,0.24270062476502635,0.12425386302176832,0.26535054679729875
260,0.6002118085682054,0.16501027572129204,0.07639813007289434,0.09740259740259741,0.004671193396671484,0.006223716320314447,0.30249105989893393,0.3373161550943711,0.1661532403264009,0.4588692956820242
261,0.5493569146176741,0.5290854403477534,0.48279471633588616,0.33116883116883117,0.16290612613534494,0.12126355090981536,0.5805833840424328,0.13291314305084123,0.5266878829032825,0.3864299353482946
262,0.43881901592098693,0.6511401574317499,0.3159309066382235,0.27922077922077926,0.11118333103135891,0.08090129249550333,0.593717763548552,0.4245105485508496,0.6545736913807261,0.1042158505745544
263,0.33588510728748344,0.17462943693516653,0.08521515630735131,0.19480519480519481,0.00919503203510215,0.00910225952965638,0.4106859604824603,0.32422600175725413,0.17574182805351374,0.24897377798417336
264,0.5298926767145281,0.1824193030599284,0.08726331068495023,0.1103896103896104,0.0052588738272286795,0.006245233702028429,0.3387773329593934,0.3358268789813258,0.18360311546933056,0.4330553857564727
265,0.6781339781964321,0.6914068343445195,0.6423330496309809,0.4220779220779221,0.38053453968435735,0.2014383612271208,0.8403595025743927,0.1286249731818631,0.6879142894791466,0.3452642944481678
266,0.699228033878626,0.6034257811839218,0.4657315361278897,0.28571428571428575,0.18757504329330008,0.1104351051070375,0.7477762323064947,0.19658514842154,0.603009851502098,0.2724619409305323
267,0.7345392044736047,0.7826462259100648,0.538191326988897,0.4155844155844156,0.23885873256402065,0.14663593520918683,0.7160918817184033,0.24974170136205648,0.7836345844407719,0.3031856844318353
268,0.48689959320467413,0.5782406170132516,0.5664125045648538,0.4675324675324676,0.18533386955900247,0.20292435085942614,0.37782402960325656,0.10973425120944075,0.5744292704318452,0.4244775724508077
269,0.4866410606661541,0.8107739903210048,0.7144832544593427,0.5324675324675325,0.44612992631820064,0.31466852430118125,0.617635623849196,0.1486156161073932,0.807802066620668,0.40329132916641863
270,0.6192117804011615,0.7267246126594791,0.5021497403802998,0.6233766233766235,0.21018691803051967,0.15235031113994987,0.5982878591167167,0.24652287575548926,0.7276054016824862,0.23619667411111234
271,0.48904119189205086,0.5723264699906034,0.3929968151652459,0.4155844155844156,0.1502668832092441,0.10648051863974667,0.6121631892778868,0.24468702165834744,0.5731126177653277,0.1376592250789305
272,0.5750421833277167,0.6580357313795417,0.27759749839197984,0.3116883116883117,0.06913627595328004,0.05538073223759548,0.5330046107131625,0.5107604966483487,0.6621495247434654,0.12900965484856994
273,0.512623451921299,0.6984271169689992,0.3810417418495313,0.5129870129870131,0.13050895099211837,0.10306876635058546,0.5437285045885354,0.3617452777101673,0.7013565030107154,0.1810117769845199
274,0.5878256875127991,0.5467615100120142,0.3129137593201025,0.4090909090909091,0.09436589100109874,0.06683268504584976,0.6104374017465383,0.3283280900842277,0.5488357491654899,0.16057914474676904
275,0.7255176067471173,0.635297568418242,0.6058471142257754,0.3961038961038961,0.25429006084971634,0.1757504606413852,0.630452787722442,0.11914999805750859,0.6316172689318049,0.3373359297129628
276,0.5256453232595474,0.500918483552873,0.3503739785360379,0.2532467532467533,0.10770730698345542,0.07668797969779291,0.6076407773826421,0.23365007023266837,0.5014761683248423,0.2904764291165909
277,0.6009973024533924,0.3276365994149813,0.24912940745261775,0.18181818181818182,0.0662615650872365,0.03943653107503554,0.7305951727454019,0.19092016441681137,0.32756189982334843,0.3153175909634511
278,0.5105960363945415,0.3064904162326475,0.26752902772492493,0.24675324675324678,0.06147382911833671,0.04998344292145704,0.5238664526419974,0.14166380824466523,0.3054870749949273,0.3658502799015985
279,0.5991885449644615,0.46980695005966855,0.4298909118122325,0.2272727272727273,0.18526768317835357,0.10776950925666715,0.7573666622440174,0.13092805712541972,0.4676495377238473,0.2632167492447
280,0.6807286327694378,0.27667211981940637,0.1888896154835169,0.06493506493506494,0.030851952110149263,0.021824443779427386,0.6001575547510378,0.2260702238512861,0.27715925456475454,0.16852302807003777
281,0.6104635066296066,0.09879544177166272,0.04455238831980175,0.032467532467532464,0.00303544102484872,0.002923601897848598,0.3997344572712947,0.28440258659507234,0.09959466141734478,0.42606796868117564
282,0.6058367408375572,0.23400894096570765,0.24682652216033962,0.1038961038961039,0.06296777285343767,0.04019362957635659,0.6783101410704144,0.0814199796577108,0.23190034633912116,0.28024571529784237
283,0.6530272592732632,0.28324906803588257,0.28800519561273336,0.1103896103896104,0.07862527047233726,0.0416618576343255,0.8271263926854789,0.09330602193746762,0.28105645233134646,0.2144306046505949
284,0.5151947855606592,0.21748222367421108,0.09508503410445616,0.1103896103896104,0.0066950356084170765,0.008857937212760856,0.30419962621163305,0.39114232405303906,0.21900547730614606,0.3945279805157696
285,0.4133693568378677,0.47128978427013857,0.35561536178719944,0.29220779220779225,0.15057022633589176,0.08081990775588244,0.823239929455347,0.20167830092431666,0.4712003705511857,0.20209904701211387
286,0.651368782643461,0.3351966556134206,0.33170885574301445,0.14935064935064934,0.10202002381440545,0.05654210325918653,0.7924801903211726,0.10280479239621354,0.3328960828555477,0.15189629942432467
287,0.6600189619123992,0.2260049668938652,0.17156965661086876,0.1038961038961039,0.03842511505982279,0.025344061376085292,0.6489352012867464,0.18147808414268207,0.22599649771101987,0.2544677673192216
288,0.6875032171362317,0.37111082819973007,0.28178757478384375,0.1168831168831169,0.07386723053841561,0.042032571674444415,0.7671365699026542,0.1942811709148501,0.37102020525822765,0.14857787844641362
289,0.5778999272560889,0.4804207126408303,0.3564126069257617,0.3961038961038961,0.10557832746245775,0.08087248977767456,0.5613963566478896,0.20877640200027053,0.48047790097791065,0.19461938773966295
290,0.5967606999392646,0.3550085689312897,0.22568764475844472,0.2272727272727273,0.04836821803609594,0.03468400964538487,0.5973532605030277,0.26402015453507593,0.3559672429936606,0.11863520788029094
291,0.6410062928475261,0.14240355547311803,0.03899067879525943,0.07792207792207792,0.0015821468466695795,0.0016531647317101935,0.361225488935243,0.500999831155583,0.14388696329150852,0.17730563500777366
292,0.7446422967590584,0.4855683652247098,0.34372730498067744,0.3116883116883117,0.10173290506989857,0.06935948318444392,0.6362997242067961,0.22803017436018247,0.4860196573390736,0.24169391220051717
293,0.5451450421572667,0.3858895969390585,0.37939197952285486,0.24675324675324678,0.13147034011849287,0.10350917246456072,0.5455785252440735,0.1058877350080018,0.3833136908017672,0.3378342175472551
294,0.6404078937732743,0.28161581478850845,0.30880554012576267,0.15584415584415584,0.09585754332058079,0.0631894571592928,0.6592252178621023,0.07176427858363144,0.27866251969034717,0.2374666150501698
295,0.5827699885534147,0.23003994169179118,0.22248315360089627,0.1168831168831169,0.051058397331054335,0.027870060596091432,0.7945200836440318,0.10588678386953354,0.22863825432995133,0.32842712804738816
296,0.5964912567443491,0.4441158475403081,0.37762097281179413,0.3246753246753247,0.1423946840508321,0.09139666493283877,0.6806347398202688,0.15585436165499184,0.44291090330985655,0.35721220611777604
297,0.7862083631525331,0.7345734660506037,0.6065779793133044,0.4025974025974026,0.2398029353775644,0.1422811493624123,0.7426952867618035,0.17229575909693784,0.7330111391915215,0.2684629566261537
298,0.6751659809680636,0.17722108071302914,0.11532112573143642,0.12987012987012989,0.008542923921912686,0.010217549293641496,0.3381407152333686,0.22346300467685332,0.17772240485411678,0.49926080761581343
299,0.699874195034406,0.33148664791438714,0.28897461705499294,0.24025974025974028,0.06935288706645751,0.045729180630677435,0.6564584625020848,0.1432150192049051,0.33040510052863686,0.30761257205236275
300,0.7355835862404304,0.20320445136836074,0.17502610166212684,0.14285714285714288,0.03018988567157965,0.022365267499037042,0.5717451863667533,0.1383872108298922,0.20263050709006108,0.3879144639670196
301,0.6530076417344003,0.12297060748176017,0.10109504924782271,0.12987012987012989,0.0075518936371975565,0.008615365824774837,0.3544361806362411,0.13844465111204263,0.12279145600090378,0.5316926440258823
302,0.6838381346460357,0.48409881042600655,0.4544017951647215,0.35064935064935066,0.16797988838493275,0.12687124185733828,0.5715500425544633,0.1226381021386489,0.4815301573539831,0.3538812445929648
303,0.4700290019462926,0.8905572624679755,0.7599184045115187,0.7142857142857144,0.48897827173058805,0.533341411923816,0.37974681782457564,0.1612867432831604,0.8879775109640861,0.5960495700503262
304,0.678441058843256,0.5016516647862155,0.35550579980386054,0.18831168831168832,0.09609879092806191,0.06300560380479119,0.6630656493920523,0.22839609376789893,0.5021057654811967,0.20207201076499198
305,0.7245098584668398,0.11322170747053648,0.05663652897365545,0.05194805194805195,0.0015860028437474907,0.0016050342471513798,0.36888237595172185,0.2716003180756358,0.1139900362274087,0.4116192275839523
306,0.6387977740118104,0.30923914918361695,0.23886767310281176,0.18181818181818182,0.0461766888119002,0.02850581707316272,0.6981151738559598,0.1838492815674052,0.3090789749796454,0.3377161454169119
307,0.5395680688293735,0.19835999907742446,0.19725336803424726,0.17532467532467533,0.04420660075656385,0.031013264253204033,0.6103146351119672,0.09622932143234608,0.19698021294947615,0.40623790048423825
308,0.661175683955502,0.43452358095445276,0.3689905217130304,0.12987012987012989,0.14994564328531917,0.06741265770156274,0.9908197985181945,0.15601513165821207,0.43335936208089004,0.11482918546921925
309,0.6297879596237786,0.06388756181971042,0.049374462336916086,0.01948051948051948,0.0031510438159460443,0.003344049595158274,0.37000723908470007,0.12751883211814707,0.06391855058160802,0.41736974052267356
310,0.5934827248247799,0.26663952791815426,0.26762173403779327,0.09090909090909091,0.07654377745366363,0.03606540357087874,0.9331325231896611,0.09658524769919041,0.26469270408551737,0.297839778712306
311,0.6125381915258529,0.04731264674904639,0.03143275983449818,0.01948051948051948,0.0012240522170623926,0.0014012977919438004,0.33672440335816883,0.1383224230670233,0.04750414825501048,0.4980310220008874
312,0.5762396049380566,0.13391252895758493,0.08810137668725639,0.09740259740259741,0.00623024917902069,0.007617460523196132,0.3297364475157542,0.20459030523029736,0.13430260848794318,0.4737823402261973
313,0.6497870548397154,0.3323340933161257,0.3479445043197304,0.14285714285714288,0.12667971420614196,0.07168491641260157,0.7773045426649177,0.08583051473004077,0.32941941644087963,0.1955776558677385
314,0.6077674379327173,0.25927629327707413,0.27586075593719517,0.14935064935064934,0.07448579850064062,0.03277628994435844,1.0,0.0797341164023061,0.25685654213608844,0.36741707770423765
315,0.5889673851280196,0.33850113752971833,0.24378109184603064,0.2077922077922078,0.05264383638548099,0.03606503206616066,0.6277625471276894,0.2123228189712693,0.3387627143851697,0.13092663677310262
316,0.6203037937937707,0.48661087353674626,0.27434941861131534,0.17532467532467533,0.06256839505968216,0.04175117787893365,0.6472431249507019,0.3310931832232613,0.48856252888404095,0.17100621095798163
317,0.6136523701144964,0.4469069856505628,0.4189532470432139,0.33766233766233766,0.16393265831823167,0.11033518072397361,0.647445904069073,0.12238634121357367,0.4445553287136759,0.4142925437598689
318,0.6351430974591624,0.22566461695790516,0.1275434865082563,0.08441558441558442,0.017791188501738563,0.013489676831748407,0.5493802172156605,0.28882819613492694,0.22668438948112407,0.3196577246895373
319,0.6093163766930821,0.25193461117845045,0.07543790607793822,0.09740259740259741,0.0048080615421191965,0.005596720365588328,0.3448820100361943,0.5939181598895601,0.25417436069354515,0.3221970112435714
320,0.7096621426743716,0.1833415525351514,0.12671639238477778,0.17532467532467533,0.011753368233969767,0.012628039279518657,0.37973205701757895,0.20506071210028054,0.1836753804082208,0.4624583115964879
321,0.694152346236974,0.5962067324797478,0.5478356419160642,0.4220779220779221,0.24161698010172325,0.1670924592212018,0.6299210800286488,0.13144904451372735,0.5933844485011888,0.3513688275067161
322,0.46032185667057723,0.099825068025133,0.14919679365419647,0.26623376623376627,0.017517594354941244,0.01567916755378432,0.4632776395341606,0.0007928807075196775,0.09714105339547811,0.611432865097099
323,0.44698783080263105,0.11906348197631045,0.16837687295138615,0.27922077922077926,0.02042257712594098,0.018712294720324478,0.4535849768893571,0.010653098530525984,0.1162951689578063,0.6871698082948373
324,0.45086168833631557,0.6569388199725981,0.6382652822955062,0.4545454545454546,0.30094901333070995,0.27837932742181337,0.45759506579264647,0.1130702836416439,0.652764894299336,0.35950944847700717
325,0.4309821284653842,0.19707911037682288,0.14515178612502544,0.14935064935064934,0.01849434040340794,0.025969950663217948,0.2836499794341528,0.18703843466254283,0.19720259209055668,0.5268547821571723
326,0.4304320826281042,0.1297024162184221,0.11486212249613749,0.17532467532467533,0.01091882069860542,0.011220449211426165,0.39712962236764904,0.12033684575646536,0.12926349249744995,0.6135280342377943
327,0.5067923639912476,0.6949285497383121,0.6770834340185764,0.4090909090909091,0.4478830153134172,0.25550451707348093,0.7764351911291338,0.11241691615140748,0.6904513110891528,0.32520250438159154
328,0.37125260795622894,0.16497393233566376,0.16247702308162687,0.13636363636363638,0.02425039733081001,0.015079366170045058,0.6788573407738354,0.09656732737565449,0.1638834329558415,0.5739687601045975
329,0.3678627018811643,0.04952951711067497,0.06836093536369238,0.07142857142857142,0.005614643582223561,0.004388373166302072,0.498877430923446,0.019928957343151754,0.04845405559002923,0.6755518071870783
330,0.391394518906096,0.09325708091372367,0.08129955859030032,0.1103896103896104,0.006450534787190083,0.00635900018058115,0.4074071399923565,0.11550069573802324,0.09299534190640683,0.6143289234764303
331,0.30881338595655705,0.08861499823136185,0.08943242994639548,0.12987012987012989,0.007717776505699434,0.007650533873487941,0.4078715218138215,0.08147237145376812,0.08796802408178805,0.6881012939665994
332,0.3379002365506122,0.12443198280233261,0.15531650382468398,0.17532467532467533,0.028422443158299143,0.02220765228697439,0.540054846263019,0.0370751138198927,0.12241288758279766,0.6654603263401019
333,0.25916778080721914,0.10448670358380996,0.09327675818352997,0.12987012987012989,0.007406523659692957,0.009217131482244302,0.3241818775183375,0.112992796432832,0.1041198090767848,0.736820765689326
334,0.5217679321041501,0.5050275205202773,0.4656168701626509,0.4090909090909091,0.23024601632673855,0.16813208822618084,0.5936836645540651,0.12899669509779949,0.5025992866131552,0.39596309629089493
335,0.4748054667552789,0.2998570195305515,0.29275531106366226,0.24025974025974028,0.09897865862091758,0.07900986543981736,0.5365391891568821,0.10590924220387737,0.2979299857419534,0.3912999818064597
336,0.39900503848784286,0.5257183584200781,0.3850350919833179,0.35714285714285715,0.17392010505831687,0.1336921441912719,0.560756918861713,0.21553568497539755,0.5258853123845452,0.31988650445182004
337,0.5428371560762478,0.07836438421461756,0.05869287398313054,0.06493506493506494,0.0030969149051205784,0.0036385428549729247,0.33908268060542607,0.14336662087037416,0.07844289696291772,0.4949682918611514
338,0.5722917208165369,0.18251594347965208,0.11038180943811461,0.13636363636363638,0.009088018350811466,0.008859285004763419,0.4168770934887181,0.2501808021580572,0.18322109202325176,0.3864426757986047
339,0.5415457599463548,0.6739332663043577,0.6091329235736788,0.5259740259740261,0.3236387995956667,0.2488996427835047,0.5615481759852561,0.13812621642835032,0.6710337805352199,0.4276756450375742
340,0.5517580670165471,0.10606969018861953,0.09451500074100401,0.1168831168831169,0.006666513353560945,0.0076119946841843,0.3534127774774717,0.11381504737459436,0.10570192211902192,0.557714026278759
341,0.44535161984730764,0.15105623627269685,0.12538123196511192,0.1168831168831169,0.018283022300961228,0.0162701778510299,0.4665493238871576,0.1419956072981009,0.15078525388102837,0.5446994008666917
342,0.3542711553972612,0.08333460120644196,0.07284046223249709,0.09740259740259741,0.005318728724167797,0.00561017451544136,0.37951637965015,0.11162918218449103,0.08309953232209583,0.6430885092073568
343,0.4354387134040719,0.2937896466024201,0.2067325648793511,0.19480519480519481,0.026169008594050552,0.023354600014015427,0.46856529309626077,0.21675586773627448,0.29415102578143243,0.3319295280878918
344,0.38794521744794863,0.13035642014893825,0.07103775546188514,0.08441558441558442,0.004790661999893549,0.0050222899079854525,0.38030784105716714,0.259678514530535,0.13108574180353616,0.504362438323964
345,0.5353011976340901,0.2666481169240547,0.27945545311620884,0.2142857142857143,0.09108607287190511,0.06161379269682113,0.640987133005147,0.08413200943339427,0.26430413360224025,0.4375652729927688
346,0.4646755795121221,0.08064730523354643,0.06761357438145567,0.08441558441558442,0.0044786325217796566,0.004033930749128293,0.43384666510562886,0.11983539482446448,0.08051178992377822,0.6131120730025686
347,0.5047408758703583,0.07305128911347455,0.07184741467287292,0.09090909090909091,0.0046170535676624425,0.004763085066884678,0.3853907306499609,0.08355933753819816,0.07258623229515465,0.5752963923689735
348,0.5390622186455086,0.17900526448364246,0.11665032467270829,0.17532467532467533,0.010227652851685639,0.01208928932434505,0.3428754931839355,0.22353731323019332,0.17950638999808305,0.5190231827420476
349,0.6933228276596756,0.6770268588539758,0.6733461794226604,0.5000000000000001,0.3791660253059677,0.23718418810746736,0.7030372437971316,0.105484391176138,0.6722308862283749,0.44920181516553775
350,0.6804323516807492,0.366852640402176,0.21800460105888297,0.13636363636363638,0.034554151215053466,0.023354030903100648,0.6310316377879376,0.29434465347077177,0.3681571689018455,0.23711412729453996
351,0.7215850722514087,0.0595177437284811,0.04059202854060799,0.012987012987012986,0.0006647702544009843,0.0006332094619121275,0.3556496422642603,0.14784896261325492,0.05971070951578791,0.44479136866526786
352,0.6020212876949195,0.2088607478273567,0.11916097801451712,0.1038961038961039,0.009501075415991725,0.010239897130229509,0.37709233726489466,0.28006625637300164,0.20979645417738468,0.3438592747769429
353,0.6806702425820444,0.16591534242895306,0.19549632194663413,0.12987012987012989,0.02363311401877733,0.01482253698428727,0.6723095359706902,0.05096023269683353,0.16367760867725129,0.44764865128613684
354,0.6371250122098874,0.3115925052439192,0.2780012748641286,0.1038961038961039,0.0842700368694641,0.04526910748808685,0.8164206911716987,0.13468670601326665,0.3103942089208595,0.25087222718369007
355,0.6403991874295599,0.12895579511311628,0.08418368787823167,0.06493506493506494,0.00480268642417842,0.005212400703591022,0.3683493364417697,0.2047971360254645,0.12935344585357156,0.3663225594370009
356,0.5617884613494156,0.4850700014792084,0.47078175548555884,0.38961038961038963,0.20093089374838255,0.13616383037018512,0.6433900760242881,0.11163691812639043,0.48201571720583725,0.4647912084309606
357,0.4374331875023748,0.5518617285874189,0.5897060697876468,0.5129870129870131,0.3404233373302836,0.24357452464796145,0.6077101968659191,0.08202058647341592,0.5465996811594245,0.4715723479647696
358,0.5199623076592156,0.38923763098805986,0.2751709147589525,0.2272727272727273,0.06819220015923379,0.06053214833141535,0.476501242618857,0.22315324697298827,0.3896373998398763,0.37937413555213845
359,0.6069975930954782,0.1811928954238049,0.1631100131183419,0.15584415584415584,0.029391836845402947,0.026795780141352615,0.4588475635986045,0.12303453286256222,0.18047763364118152,0.5141697709777046
360,0.7261382796750241,0.5541408019922662,0.5003267413613419,0.35064935064935066,0.20039559623878622,0.12280421709488017,0.716793219398278,0.13697286425939387,0.5517837356563109,0.3498936633489919
361,0.7666514553556089,0.10249670467824776,0.11360919824061834,0.13636363636363638,0.009168609008490307,0.009663126759165712,0.3855119585260733,0.06257676959350816,0.10138442538965488,0.45393994718566116
362,0.6363576556044203,0.3694248479058672,0.3623513604997628,0.2337662337662338,0.11451661072266979,0.0776195623617006,0.6409609861086398,0.1062972026112049,0.3669882314623799,0.2839025196933902
363,0.4906341465239695,0.4873935240870506,0.45518554809371,0.37662337662337664,0.19544803490252413,0.16282555504931853,0.5135843247537805,0.12440461237129402,0.4848781613847345,0.3582772723165906
364,0.41943719769915166,0.41560135534060744,0.3813626607008395,0.2532467532467533,0.10906094608193077,0.10455522483722265,0.43860507147801925,0.12882559558887036,0.4136680505050527,0.3729962076859651
365,0.478442056402678,0.25948507462973847,0.2651626187977998,0.17532467532467533,0.07179268820952425,0.046994082141061946,0.6618626531223423,0.09114853909441606,0.2574345918240986,0.49197990454997004
366,0.4618327364968785,0.3347821392949868,0.306962047739133,0.18181818181818182,0.08327859227617049,0.05460698135012574,0.6619164493205192,0.12677531095042383,0.33324424331592223,0.28991204718395847
367,0.5679180466001531,0.1889637515672031,0.06394883372886936,0.05194805194805195,0.0035884267661032837,0.0043764656990286,0.3287810252245896,0.4801577407633324,0.19063306331047997,0.426586594512417
368,0.5406447745536135,0.24260291692289096,0.22229217162603387,0.13636363636363638,0.046832931833414804,0.033668259878564255,0.595428165538139,0.12270892029178687,0.24150801142658712,0.35201497814445326
369,0.5279396326345939,0.18016248292600606,0.1335355487268151,0.1038961038961039,0.023549443159611903,0.01993750651563706,0.49439943913126133,0.181702555893614,0.1802628663961816,0.43616677560287254
370,0.5463695663856135,0.3293563798027103,0.19506974864013865,0.24675324675324678,0.042292309366994026,0.031951986292776985,0.5639570172208047,0.29104713531016324,0.3305645267444948,0.14187998649508368
371,0.6531139461825802,0.6704869133881002,0.3908786857902287,0.34415584415584416,0.10789966483092245,0.06806077701688998,0.6917251428807225,0.3258396357554375,0.6728379421926683,0.1016454702285211
372,0.5792254690117081,0.7577798692399359,0.4670260093841723,0.5194805194805195,0.19184975402602927,0.12991216307005737,0.6437672963816911,0.30116565640029724,0.7599044889496065,0.17850323311939117
373,0.5183688942948091,0.36547244268205764,0.21765192893446433,0.27272727272727276,0.04094525415085518,0.030896896786337315,0.5643629510075303,0.293404965827634,0.36676505062310816,0.18286743565894112
374,0.4861252503380419,0.3168486368744025,0.22171068173022956,0.33116883116883117,0.06020632630665501,0.04759776234643727,0.5398731052043358,0.22145705059803789,0.3172590327340338,0.19795197468742495
375,0.4751059463455155,0.6715379748028589,0.42962515164937903,0.5194805194805195,0.19266429378441133,0.13798247654390433,0.605919658858532,0.2803364154031809,0.6731185036076219,0.17781941742222865
376,0.5020845511628825,0.4309391608279244,0.2852394667862547,0.3051948051948052,0.0926730530024837,0.06576542971311995,0.6090243857742386,0.25340283876495884,0.43181483965629025,0.1440798464837117
377,0.38546011727929763,0.45541897796732295,0.3720931424424191,0.4545454545454546,0.1429519718548943,0.1048794584825695,0.5893908063898518,0.1708167372078475,0.45460007254104867,0.18895050353716364
378,0.6746547120359284,0.39114056390415947,0.2143325967836081,0.17532467532467533,0.03678204225747489,0.025278796401827064,0.6211470162917002,0.33483507355304964,0.39287720122455916,0.10702271312209136
379,0.5653771200685326,0.6849247351252834,0.4687957039014767,0.5259740259740261,0.20282748857202249,0.14049848800202322,0.6283434841827479,0.2497120445003818,0.6858657719811007,0.19402074394887378
380,0.5785027089581766,0.6779784086703025,0.3850871642823299,0.4220779220779221,0.13195138239292728,0.08146671091105584,0.7090070685697869,0.33949271469598963,0.6805470506885981,0.14556271024850823
381,0.8690243720740528,0.5257557192393085,0.23762489000668735,0.28571428571428575,0.04491229615041076,0.026674525726461035,0.7260481393753534,0.4537236256238305,0.5288722286083821,0.11112842543030924
382,0.8525072991722259,0.5480567261552176,0.47629663986190746,0.29870129870129875,0.1860577489546747,0.11753674643158087,0.6935525461552463,0.15040962102234912,0.5462609626065504,0.19847530623465814
383,0.5354150653118098,0.5460559992441496,0.4029924261525249,0.34415584415584416,0.13764626843856087,0.0960103779968387,0.6223457819710423,0.21330015849267853,0.5461542312281226,0.09094426674923595
384,0.43598455399458025,0.37257714978185474,0.24561999615267982,0.35064935064935066,0.07131218238322747,0.05623813332133736,0.5422505506552784,0.2505245795802073,0.3733802620860886,0.15122499684090848
385,0.43257896197743884,0.5290662985194313,0.37817097245857106,0.35064935064935066,0.1780322671851787,0.1215619749005313,0.6377755237516158,0.22592102162593597,0.5294605121964666,0.1617853371393652
386,0.4465119548877724,0.07819760676517098,0.015350597723411255,0.025974025974025976,0.0005617318604739944,0.0006748855641788446,0.3214696881311929,0.4197619571851181,0.07925762573493901,0.20634932491963862
387,0.4716855165052626,0.3933770210063616,0.24765389085565842,0.2272727272727273,0.06164868371151724,0.0404370337009767,0.6589284312344242,0.27198514725490885,0.39447106941563703,0.10614936114676554
388,0.4638355334129213,0.5245177979626443,0.36207106260000244,0.35714285714285715,0.133804927565563,0.12631545013526266,0.44651673838602873,0.24052377156890192,0.5252096200109662,0.11898759359760389
389,0.34282842807452696,0.4640328207020652,0.3112262084593752,0.5519480519480521,0.10130280781099663,0.09205296542535582,0.46540280559135133,0.24982000925631703,0.46487044137876027,0.20997738288573944
390,0.44894339924814586,0.5836100694466245,0.34355946904234724,0.4090909090909091,0.10876616924395617,0.08246189914739716,0.5678106846528165,0.316609339248224,0.5856213313185182,0.16551215738320368
391,0.6260171008973293,0.7900565210659057,0.48476971855966383,0.48051948051948057,0.19319283539873913,0.13770261661277777,0.609069694636265,0.30432028649919174,0.7923057477056283,0.14966832419048062
392,0.5385289836726043,0.7408518147010204,0.5506509248134361,0.5064935064935066,0.2646161064050893,0.1789398617428986,0.6456113216934012,0.21509454943843975,0.7408395643248212,0.1964883362804375
393,0.7765429775952498,0.622101504537726,0.29899286445163425,0.3181818181818182,0.0688786715563837,0.04577867611841399,0.6508992287448644,0.4277522680000967,0.6254427505434538,0.1259093299637128
394,0.6778657386216896,0.39730385385313893,0.25779752015508506,0.2272727272727273,0.07335601191767344,0.0567667917687623,0.5535870108379937,0.2593863905896874,0.3982406969960888,0.12258111197537874
395,0.5611045295363423,0.42844945843168986,0.2830620257792413,0.2142857142857143,0.06992426923983402,0.05021832592939171,0.599507043981355,0.25405849347686454,0.42933334601806866,0.09826128189482275
396,0.5183988191541805,0.36507566764064936,0.15909676246003668,0.14935064935064934,0.023433515065230587,0.018082037646413925,0.5444585934359881,0.445805579359266,0.36743397510099696,0.12885484013900328
397,0.4650762503616649,0.681772492227141,0.504344060056923,0.590909090909091,0.26143764304439115,0.1710841536028914,0.6688584324764412,0.21591631931526772,0.6818305959222655,0.20986675120815015
398,0.4765442995177268,0.518033202816685,0.2775035961031031,0.2207792207792208,0.052458812159853666,0.04011304989574737,0.5586011526084914,0.3596307128269828,0.5203687582182555,0.08841753749202233
399,0.5496837113172611,0.5566885174994558,0.3790025205488924,0.4025974025974026,0.14513093182444642,0.10233774439763506,0.6152910211157965,0.24781455769976618,0.5575315943962087,0.14348218210293545
400,0.5603812035720849,0.4568759265577617,0.3239722530197918,0.4285714285714286,0.11296251954706547,0.0767976423194502,0.6388179409297005,0.22605898256717444,0.4572987862797312,0.20520835993463146
401,0.4975334790781648,0.0848168522709262,0.054690771322578643,0.1038961038961039,0.0031624289890743364,0.0031801765356861142,0.38697952403626346,0.18178717378574977,0.08513791619430057,0.2530448948370662
402,0.5198999489056689,0.309594809814793,0.23248992099885857,0.16883116883116883,0.05725474515566148,0.034512737238522044,0.7189608063199847,0.19427848783020618,0.3096083687178417,0.15158256852254764
403,0.5242957280786072,0.4879143017229405,0.3188776339157892,0.34415584415584416,0.09722980989952171,0.0664362378626186,0.6345260164090064,0.26246706982382545,0.48897128377118393,0.17569216030007345
404,0.366774640086066,0.644316330487643,0.45599403496637375,0.4220779220779221,0.19512212514153912,0.14482126102216833,0.5828922102485883,0.2338848138204151,0.6448689694227201,0.10735259724258159
405,0.19759061413735302,0.17918916591034528,0.14826754820661092,0.1168831168831169,0.04496103733985073,0.03277287578887891,0.5863695285748648,0.14771364364461503,0.17886932475348172,0.1898981524041662
406,0.32243105520312165,0.6369702201006041,0.41217685915319147,0.5779220779220781,0.1605004179416925,0.1466587398667942,0.4632964737965782,0.27379656867215496,0.6383806839174365,0.161398595140754
407,0.2600924981675753,0.3929228860972824,0.3014344283974278,0.37012987012987014,0.11842125812455588,0.08550010531792425,0.5989970325801006,0.19178842490687076,0.392744938947423,0.20271027260724186
408,0.29376769976150474,0.29584053151873807,0.18265501915620064,0.12337662337662339,0.03945019127433593,0.03213207507907308,0.5200151934160716,0.2685947630756089,0.2967893319193954,0.1280416832979821
409,0.28536724637832533,0.44691792487773446,0.38083254038679537,0.29220779220779225,0.1794754337912026,0.12884453406384855,0.6041550834511423,0.15532203505327435,0.44568658081765306,0.1286087784970866
410,0.41470922103910224,0.574670830002851,0.39436486858425274,0.4220779220779221,0.19050213912033448,0.1308861987921847,0.6337349931121372,0.2450420293176287,0.5754649895629088,0.09595030218558595
411,0.3931289961879608,0.5885023720916501,0.4000508689745266,0.6233766233766235,0.16033647977361393,0.12942938722703076,0.5313427929215639,0.2497104462203909,0.5893974654500219,0.2087655479799839
412,0.44341066387837424,0.6697586030491983,0.5438225182949578,0.5974025974025975,0.3227897508276321,0.23900501299903668,0.5853522673914736,0.17805790382173092,0.6685955221552653,0.22393399395790908
413,0.4078158667301218,0.25195581170773873,0.13711406767055062,0.12987012987012989,0.026899251725119377,0.019690563044731886,0.5771457850495973,0.3116769913979355,0.253177925237201,0.10662921788815363
414,0.3905476848274404,0.275656272442959,0.19431745938924017,0.09740259740259741,0.06432130787159702,0.041276120154114436,0.6747659988678489,0.2141520842934338,0.2759978336999401,0.13204217775356952
415,0.3467225997514375,0.4160746411977764,0.16805639978559028,0.16233766233766234,0.04321230686020952,0.030222778140121344,0.6120152576663093,0.5004613881991467,0.41891865863613265,0.08756020876365858
416,0.28504228035912316,0.4110886354476974,0.2859201548921135,0.25974025974025977,0.1167301304655308,0.08708487154343303,0.5780925948356419,0.23136501531384335,0.41161600435144124,0.12797137297454586
417,0.37465543780588384,0.6679756361140441,0.48333543418859565,0.5324675324675325,0.20940724428603472,0.15416425541693254,0.5882427376698444,0.2249624317726137,0.6682940442248684,0.16902288112392577
418,0.3383054078169284,0.5251044022398778,0.36112948742837786,0.27922077922077926,0.16319922192851224,0.1080847972155801,0.6587522288680661,0.24211678196806663,0.5258270284213901,0.0822768449805936
419,0.3756468930229139,0.7955180190356979,0.5804734929306152,0.48051948051948057,0.36817627536007785,0.28012577878679457,0.5683593377669189,0.2239439932303815,0.7957533335281465,0.12570338143204424
420,0.5448130511000114,0.19024765550973635,0.10712560881536666,0.24025974025974028,0.010820590395509089,0.011644781920766494,0.37856201957440927,0.2787225334145562,0.19114933035530046,0.21745746210163275
421,0.5703210669810109,0.17901541124381062,0.06862631591685847,0.16883116883116883,0.004229234088573388,0.004938997709769056,0.343028782982213,0.4201800987700838,0.18048670410845846,0.2242828256492731
422,0.4186554713567342,0.2980248476775236,0.12085658392486061,0.18181818181818182,0.017161590639952352,0.016447535467825396,0.4311057524086339,0.4628205692948224,0.300153412829698,0.13336020957155317
423,0.5157895006573793,0.5164569974286249,0.33010135958385517,0.37662337662337664,0.07728118468189477,0.05924944012844164,0.5594599989398034,0.2740215876675396,0.5177253544986717,0.14677686075584556
424,0.5086207579981171,0.5857919046082127,0.40374453016638967,0.5259740259740261,0.14912432405968662,0.10305133198873999,0.6289495099783922,0.24355473412288947,0.5865584478441316,0.18943871885147462
425,0.5425652029204328,0.5058890926224462,0.3239502087902584,0.24675324675324678,0.11650325727793945,0.08095335798084885,0.6241692616852665,0.27258742730730545,0.5071225961739221,0.058438127475682174
426,0.535080290107863,0.4289695665349789,0.3277953794586728,0.33116883116883117,0.109801431034393,0.08512541751494733,0.5542505835897151,0.19502670768584074,0.4287970658309812,0.1214398379920793
427,0.611459616686353,0.439830382078654,0.23531543640051827,0.2207792207792208,0.0521406334895738,0.04062767011599193,0.5474113802914226,0.3524588955319877,0.4418586669230059,0.12516398944470755
428,0.6038694944247324,0.29119241342774116,0.11348780681849312,0.15584415584415584,0.01434546281342804,0.012100124092556628,0.4894973753842606,0.4803898899038146,0.2933506608298735,0.17176733036313
429,0.4889984842054166,0.41022447697939785,0.23356843904681984,0.35714285714285715,0.05026485177375335,0.04444407133214265,0.4773397592947904,0.3190765105910369,0.4118641807287655,0.21901677520373758
430,0.4796925379951208,0.07545966078936411,0.0121663470942929,0.01948051948051948,0.0005354558714178313,0.0004920534027416349,0.3537299423588529,0.43982056050209595,0.07653692395164217,0.22991510600001824
431,0.4740296809302106,0.07306791776872862,0.024657011575087193,0.045454545454545456,0.001256594726927557,0.0013218468074650176,0.3548184097973314,0.3055794803694559,0.07388614588055575,0.23770091202236937
432,0.4687942514085378,0.17126116776814126,0.12109223031552464,0.1168831168831169,0.02302052882353978,0.01932539952904218,0.49855041776115444,0.19486882912093784,0.17151481367040927,0.19283993005133387
433,0.48970584465263933,0.11698239963008,0.02384363406506336,0.05194805194805195,0.0009838791439737587,0.0010963010608591001,0.33911491092678275,0.5351974108965085,0.1183850702830075,0.20228335413784387
434,0.3586779939897914,0.1210907118154658,0.02914108487194711,0.06493506493506494,0.0018276319815993423,0.0019984882119230083,0.3528125136519773,0.49911099435004536,0.1224651861654923,0.23732302674206712
435,0.4715139407759622,0.1019205826032957,0.031015356082884984,0.08441558441558442,0.0017703423949607688,0.0018110938881142865,0.36891071902778955,0.3927245153881743,0.10302430334279948,0.24907058130999227
436,0.5322544345530834,0.5135047982881802,0.24351723639347606,0.29870129870129875,0.07663228042594546,0.057157715733950294,0.576247671850219,0.42476044462531226,0.5163716562919614,0.12012828308378168
437,0.4709175751556357,0.45874089891420755,0.32043051975207615,0.4090909090909091,0.08705799788731403,0.06306984812731525,0.5953159766346606,0.232376990242198,0.45927896936288937,0.18319769265357835
438,0.7983829858320238,0.6491525532927461,0.331142787964628,0.4285714285714286,0.07683687928837866,0.05511867041384541,0.6008935753438653,0.395815523670219,0.6523035305071354,0.1440762925302388
439,0.5555050261878537,0.5129450239873592,0.34209982746926776,0.27272727272727276,0.12748416962830944,0.082499946652964,0.6741151815783483,0.25488398429243564,0.5138953387099494,0.10793478412841714
440,0.5379488905500317,0.40359756091428706,0.25292056988362793,0.37012987012987014,0.06290237766271903,0.04347062337844825,0.6237210224238505,0.2749209228916084,0.40473995335318397,0.17892863111933288
441,0.655809790132928,0.35194400899241146,0.11706812086641215,0.13636363636363638,0.011523643759210608,0.011203985815359507,0.4208641213468834,0.5951880750921801,0.35475845398598804,0.11855296804419097
442,0.680734719958115,0.18330228529894813,0.09417748965916291,0.05194805194805195,0.010786573416304478,0.007153838197320045,0.609156485260633,0.3096216783703031,0.18436496447674822,0.1477820175758008
443,0.540562472903881,0.34403522083580723,0.188057977286116,0.14935064935064934,0.047472078826393406,0.03583094987943689,0.5655872230444189,0.32906310373564396,0.3456012060360348,0.12360789708805786
444,0.596017460751956,0.3467754444354323,0.26268010657785157,0.1168831168831169,0.04366769994322936,0.022718428360050065,0.8305207876077787,0.19383994357061757,0.3467181536513516,0.07203148303072018
445,0.47718269090324494,0.44177107959363743,0.2794750684102837,0.29870129870129875,0.09370660237286631,0.06302577674600487,0.6450912690718051,0.2738648983835773,0.44294660597918417,0.16564920412377435
446,0.5644169875746278,0.3614870375433894,0.2884964320411082,0.24675324675324678,0.06608766656857089,0.044009333820718616,0.6491750576428504,0.17555059285419844,0.3610412883935597,0.15269445709551036
447,0.6913529555240979,0.6365388048967333,0.4038549700907322,0.4350649350649351,0.14284330741044235,0.09849868495790232,0.6302397585194097,0.28298383939376326,0.6381187624412048,0.1532797044868916
448,0.48137178663003855,0.4814937594005535,0.24274719545218115,0.36363636363636365,0.06381770526611337,0.05587041645388778,0.48354290324301247,0.3877081812381279,0.48395571697480955,0.1638080978435334
449,0.6224561763905515,0.14313825873655564,0.07059281349220213,0.1168831168831169,0.005699582526766498,0.005857272101544054,0.38986211420957334,0.3004165305210962,0.14407665865206176,0.21293185163162198
450,0.415146965681923,0.08899989655230253,0.05942168459338379,0.07142857142857142,0.0006016284528943231,0.0008691169745120798,0.2959243843238771,0.17684537771199577,0.08927939616346767,0.18274452326977406
451,0.5156146414552939,0.5631627436675944,0.2644877899129074,0.26623376623376627,0.06752570390400126,0.04421993566488948,0.6609837851805652,0.43570699488575193,0.5663183132801252,0.11230555651299956
452,0.5403145865865647,0.18482973491997934,0.07062709186505782,0.12987012987012989,0.005700223842887617,0.00562854746529907,0.4047432982891322,0.4263180831207173,0.18634247408881416,0.17835956539185568
453,0.419753108300961,0.4794627608830879,0.33992451193919737,0.3051948051948052,0.13118450028949086,0.0978614037740023,0.5785584970688018,0.22723257955028542,0.4799003777724683,0.10298857672304321
454,0.41731572214027246,0.3613720694034606,0.2701590992777497,0.2207792207792208,0.05872167439310299,0.04668016413688947,0.5365337651141228,0.1997397002173641,0.3613973715784417,0.12352480347843975
455,0.4039670802997727,0.09917381051667151,0.023138623921682866,0.06493506493506494,0.0012722986392106387,0.001436468841769746,0.34010974780442005,0.4518708822701609,0.10037287392402551,0.202608009360495
456,0.5198400081216635,0.0934876340590916,0.03114419874278572,0.05844155844155845,0.0011898835997715082,0.001541427089131907,0.3112524553633205,0.3529447200235274,0.09447468762456655,0.20353262511533277
457,0.4879305593765265,0.4363229113028349,0.312491377444049,0.33116883116883117,0.0903530625786134,0.06378408858321338,0.6123111459799709,0.2209376253620508,0.43666007224858877,0.1669497703439654
458,0.41136260380397716,0.24893797056556125,0.12492437878746389,0.1038961038961039,0.018793758332478705,0.01757787290561281,0.4431173007300518,0.3450912478773426,0.2503523545064094,0.15853880168639867
459,0.3525246170767894,0.2514724726024313,0.16740016442551942,0.13636363636363638,0.038337142035248586,0.028616886196390506,0.5701717822918677,0.23203554928485087,0.25203214552185055,0.16552171803771085
460,0.4277287623683049,0.37134371770174796,0.2711469098781833,0.16883116883116883,0.09926810526131369,0.06231992061989225,0.6946100047415104,0.20941838190766665,0.37152633694778,0.10498785917927467
461,0.4248667906506355,0.3768700035741118,0.24787099972917342,0.2532467532467533,0.07436151549556845,0.05590626525547536,0.5711725157858196,0.25187857609955056,0.3776933365444987,0.12026939695775024
462,0.4348878512975153,0.5888979180308759,0.40942104312995703,0.4285714285714286,0.1631202838930893,0.10949765496531114,0.649277146665872,0.23988923590872674,0.5895868023604844,0.1785197185629337
463,0.4839030967695065,0.31003040627163647,0.1895671624837157,0.2207792207792208,0.027619577247296828,0.023648862302124648,0.4901240686399793,0.2748081955195285,0.31105568147656526,0.1492665615308782
464,0.47701852376738774,0.20234027871984483,0.09081884454541624,0.12337662337662339,0.009082209575914473,0.007070012511839842,0.5183402949474722,0.372485728131722,0.20373734578126035,0.21024636915215855
465,0.4895695980455338,0.26308642100350077,0.1163159514835536,0.16883116883116883,0.015299873246907802,0.012472651964892103,0.5078035784431164,0.40696104572832925,0.264845938735952,0.14745042932706165
466,0.3913574449994005,0.2773096916314908,0.19324046798479244,0.1103896103896104,0.045929619474062884,0.0353039535758686,0.5544461286914157,0.21864728101235537,0.27770656501213636,0.15952314555892175
467,0.5637750757373173,0.41543331521661103,0.2135797861932306,0.18181818181818182,0.03757596230865775,0.022283636248158985,0.7235282461439255,0.36931810015639077,0.4175226015568859,0.09221946255741856
468,0.6635471438594235,0.43127052126514115,0.22842232451835376,0.26623376623376627,0.04391618886812028,0.03119000576402063,0.602410457220737,0.3564663293453858,0.4333071924960132,0.12549130516917423
469,0.5164651604912464,0.22730924029947672,0.13011611438355186,0.12987012987012989,0.022150680593928922,0.01901491785727591,0.48660352055071504,0.2845278723927306,0.22830200654798244,0.13739037679793656
470,0.4456769823029486,0.10725883099028574,0.05073690913390762,0.12987012987012989,0.0034693897340334484,0.003965167796006622,0.34828863041169716,0.28155170526976114,0.10805983350596736,0.2883912730807873
471,0.5631077698107388,0.15220846421227335,0.031178278586038347,0.05844155844155845,0.0007484151406665003,0.0009589894975133818,0.3131151185651449,0.6220279263479664,0.15391149597641368,0.1479308678259812
472,0.4888291073375731,0.1436620161038619,0.09182883804402107,0.06493506493506494,0.0177422718869031,0.015769750789996696,0.46679982743673826,0.2176003395371225,0.14413741356127252,0.19459133699415115
473,0.5415948963957561,0.17171776011648787,0.028886061862519505,0.06493506493506494,0.001243660782245512,0.0014612989041033816,0.331484137880434,0.7410219913070171,0.17365717490713273,0.1531906861488385
474,0.44974492427968793,0.4135568967206551,0.3091993983594211,0.33116883116883117,0.10358871538462627,0.07795754708142279,0.5721854454715485,0.2027080674175205,0.4135663080671901,0.15795635286177626
475,0.4399352603068146,0.6811399882659356,0.43252231326014406,0.5519480519480521,0.19356806192653256,0.15432148330620002,0.5390303241866987,0.2842054680517465,0.682808515707928,0.21076672866673532
476,0.5680064211094268,0.6529751756937118,0.3252398956474017,0.5389610389610391,0.09491682054107298,0.07570348573756276,0.5368813661196243,0.40958536057423256,0.6562773655314259,0.21684852651794662
477,0.9169454969472973,0.7461790947459893,0.4496133902007186,0.5129870129870131,0.12947289726383435,0.07891709192827544,0.7186330309495742,0.3120292310026186,0.7484808857450738,0.161430882719233
478,0.4507258545269105,0.5643591534128808,0.3949952988563341,0.5389610389610391,0.16313718024836302,0.12773521306607644,0.5494309741130593,0.2361420593004948,0.5649655686541096,0.18609272547660682
479,0.5653140307287862,0.8072524986326751,0.4992339859818837,0.5584415584415585,0.21692180945621317,0.14989335877172755,0.6301984736066283,0.30088563982533756,0.809466620367044,0.20235633192601488
480,0.5261755406668344,0.6733358999937572,0.4472883103078968,0.5000000000000001,0.19638561906695473,0.14129782231139468,0.6029448019912749,0.26291135006721733,0.6745650001525972,0.16448078319438145
481,0.6286141011082201,0.15824440881114626,0.10274862355136753,0.1103896103896104,0.014100726914961424,0.012244771015523612,0.4750023464163003,0.2182019121120234,0.1587144648137636,0.27965447131490395
482,0.5340820876528872,0.5024032873529695,0.49237201769480937,0.35064935064935066,0.2536630546173807,0.14575172384127014,0.7687768991279691,0.10870706862101082,0.4990874647675083,0.3603080698599589
483,0.5714399486056835,0.650490705039117,0.6289727715563763,0.4415584415584416,0.32559556591960637,0.22956806019317322,0.6174279645519238,0.11464791399312002,0.6464543574350742,0.32074933882864576
484,0.5543399233229754,0.713037204369352,0.5553674957102221,0.4350649350649351,0.19824404931013903,0.13160939793878315,0.6577655037956197,0.19509248798810752,0.7123955855525251,0.40306615043890953
485,0.5887207215247526,0.4656181252928173,0.4662506257892755,0.4025974025974026,0.16488402111350367,0.10932578827277108,0.6579826851194628,0.10135764734229019,0.46222838667583227,0.4556632538642677
486,0.5124208549685013,0.6808422634273257,0.7180752282489772,0.4740259740259741,0.47815491494794726,0.3405941887018672,0.61112658744394,0.08670611416082674,0.674666887270639,0.38523556207663884
487,0.20506426089209084,0.5983760337384962,0.6628279286092473,0.8961038961038962,0.3924079355920449,0.526526203394354,0.2981142796498301,0.07144272721383965,0.591848373662924,0.8941542456829807
488,0.34988918995162466,0.7001940811062753,0.6943872562697104,0.8051948051948054,0.4359797924452959,0.3903001481694867,0.4748831799241729,0.10658178009169211,0.6952969348337473,0.7970186230037638
489,0.4062378570848634,0.786314864113794,0.9117721933636095,0.7727272727272728,0.7341070553601057,0.672890499001684,0.46269685526038623,0.05847580891760534,0.776249311080107,0.6630761694462942
490,0.43547175927013926,0.7279283518346938,0.7182250344650809,0.5519480519480521,0.4742839236484756,0.3308638365373435,0.6251533133259445,0.10842947517953389,0.7229521023562403,0.40407828624050846
491,0.487901842219871,0.18680071842584378,0.06523334780337357,0.14935064935064934,0.004817351920930245,0.005419963012859664,0.35617922948100483,0.4651875989316414,0.1884244751910139,0.24631855389968849
492,0.5825542674848841,0.3401466623488996,0.2199957535437897,0.17532467532467533,0.03613212928827146,0.024392861011935902,0.6324938162525662,0.2552422025355892,0.34099022234876714,0.15496133869252288
493,0.13878164195610443,0.3686726841397794,0.5208772227509446,0.5064935064935066,0.2243595628622632,0.47057036762859744,0.17038881084222962,0.006967138087951685,0.36010260560875534,0.5594500656133311
494,0.19292507735153286,0.746971294362891,0.8555784645160646,0.7727272727272728,0.8614145085126302,0.6267279446544469,0.5976280312882085,0.061989864716744225,0.7378009437412968,0.6156101304786437
495,0.47330686415873424,0.548622333629404,0.5163698592971325,0.5064935064935066,0.25072358356922375,0.18379682214859955,0.5913522263745536,0.12263864144253578,0.5456603667321884,0.5019521413095588
496,0.3633313083860842,0.22710878900966783,0.24906826326874315,0.14285714285714288,0.07553110640659043,0.049267210593830275,0.6647957620635042,0.07062698855521782,0.22472858801326118,0.4624156423833259
497,0.2512609671124265,0.47718965252345025,0.5431636025600214,0.38961038961038963,0.27937996702771506,0.2568319709032413,0.46072823004115765,0.06301398192731072,0.47145964650496996,0.20504236533439976
498,0.571020033074258,0.7825631266876838,0.5258236596627405,0.4025974025974026,0.22308758548168486,0.17365004385159236,0.553622576663657,0.2603161408498383,0.7838249714152675,0.34405367810295234
499,0.3872247948118889,0.24397930554044692,0.1452323630862961,0.14935064935064934,0.022319985831001556,0.0204687243271191,0.45393138911986003,0.2732816074964092,0.24491084343686542,0.4409027773342736
500,0.3694595298734412,0.5863617214098412,0.4701445514481017,0.33766233766233766,0.22528168634261275,0.23832646472125144,0.3930446344527268,0.18124592228248632,0.5855096350237312,0.23804724372362812
501,0.30742378720923214,0.19576530789990507,0.15386183985480817,0.16883116883116883,0.020924977706898346,0.020211769521338845,0.4290679014023179,0.1659465011643651,0.19563279218649626,0.5943364471378725
502,0.25199605209625175,0.42251043232399044,0.5325597647232867,0.3051948051948052,0.21063830793961003,0.1271875599051332,0.7284096373052931,0.03507405580614026,0.4154456586222813,0.36891693160589506
503,0.29189648009555336,0.33107454980053835,0.3663925817354038,0.18831168831168832,0.167947124572032,0.11919692813378752,0.6114896931165504,0.06989567931360213,0.32748065760112155,0.41384277961583543
504,0.3148456065875419,0.398130691522819,0.4363939545997291,0.2142857142857143,0.2484240947488916,0.16201670935222268,0.671173197769249,0.07332718044461012,0.3939562226282221,0.2363543245222352
505,0.22229059727224343,0.2842186139173752,0.34610479125496985,0.29220779220779225,0.08160182810487587,0.11158229021272438,0.2916502714642865,0.04379857624750766,0.2799499714651893,0.48570944990548776
506,0.40118049101619346,0.5905453022569668,0.6755065554698233,0.5454545454545455,0.4097912097765343,0.3021530736074775,0.5883524105411516,0.062015573822661096,0.5833303152434615,0.45381586896032317
507,0.3218979289058227,0.5733903016844051,0.7162447403254774,0.6103896103896105,0.4297922058690361,0.6308156128829203,0.2676658759206101,0.03751066844055451,0.564065302756429,0.3315038766910077
508,0.2210373606105448,0.7235861189586288,0.7833721155064609,0.8701298701298702,0.6617715622009752,0.6141641445754924,0.45626262078866947,0.07880738487697608,0.7163287710086095,0.8451113278420831
509,0.330038978804856,0.6108348397219259,0.6533061998575289,0.4285714285714286,0.4653015396852134,0.34233407065783544,0.5898975806008819,0.08207308111422124,0.6049881473836269,0.30647002462954676
510,0.595669930128277,0.664779578626769,0.4792092510257668,0.4155844155844156,0.22202096549052247,0.14041090059856393,0.6933885577329207,0.2264109089383361,0.6651377578565211,0.17479978036489102
511,0.3460519235177538,0.6685321671123534,0.7247695884232989,0.6363636363636365,0.5596103829677959,0.40102407921237887,0.6072847504692814,0.07818804810379593,0.6617933989340326,0.576222446431541
512,0.4893002738071285,0.533823695425055,0.6189920316480522,0.4740259740259741,0.3213384432540604,0.25339131984475777,0.5463219545111669,0.05794987736707097,0.5269921845155787,0.44475362816244596
513,0.5034813648896429,0.668378527456891,0.6807064377391231,0.4740259740259741,0.39257660642146247,0.36380434924255656,0.45680524748153545,0.09773219685089352,0.6631266357079573,0.3258327963467788
514,0.6409761807174449,0.7082990273786371,0.39760162863200826,0.38961038961038963,0.13152884319388036,0.10515539410175263,0.5365131060337031,0.34688997484939965,0.7110578322770107,0.2299259044469132
515,0.49258778382197643,0.40375541867505904,0.3810098353006034,0.4025974025974026,0.13610414745410887,0.11805741482381606,0.4905837264736254,0.11933786223419934,0.40155897395920537,0.4157306766554376
516,0.616914524689599,0.7474498566965707,0.6492950843926305,0.4610389610389611,0.3733482815202503,0.24465212991828203,0.6686595213922809,0.15329284212208155,0.7449794354382097,0.37812916258993684
517,0.4917154688025841,0.5959817734263234,0.5895356588419325,0.5454545454545455,0.3129228968496299,0.24444914419952166,0.5519565373298085,0.1066501796667702,0.5918671212521134,0.43766601598778293
518,0.39509238731066143,0.5685623913150323,0.5093681580634536,0.6883116883116884,0.2641838287000065,0.19665643065705152,0.5816396178022653,0.1400287591251732,0.5662630887447654,0.4042509499978354
519,0.3926515443731188,0.8167651899117131,0.6231526171866365,0.5129870129870131,0.41790468909999107,0.34148067626039663,0.5255467550110786,0.20514704962221603,0.81633693037167,0.33606923389281734
520,0.3758419384634829,0.5230871040337245,0.5489784755386322,0.4415584415584416,0.28042663981685834,0.24162339545738165,0.4952275636651449,0.08732714594610946,0.5184413721223742,0.42411808460062567
521,0.2936393733580295,0.34846518329264425,0.425427980560201,0.4090909090909091,0.16063267130671205,0.1948956000260149,0.3355727133762582,0.043335167632017,0.34318877047480056,0.5043592073632244
522,0.2853229581271467,0.3366688942137017,0.3520622696706133,0.27922077922077926,0.10182352931242056,0.08357764264517248,0.5205563605575277,0.08626001495070806,0.33373033315932193,0.4634980169235903
523,0.3777369647979113,0.4984757238177133,0.3773960609595541,0.27272727272727276,0.1805377337388001,0.13019235916518263,0.6012266853357939,0.2012190621999289,0.49833850177642836,0.3232123078575196
524,0.4134668569581613,0.604690690880366,0.6427224044541606,0.4935064935064935,0.37959589327196147,0.3425837284492829,0.4705330243147246,0.0839532614391319,0.5990409715755312,0.4413840743143718
525,0.47840188934466765,0.6183080567984466,0.5533890609287503,0.4480519480519481,0.280944543412035,0.2043481694023444,0.5966164463592327,0.14095806246953724,0.6158122431741346,0.3526014981111332
526,0.522276778435197,0.6278511799909118,0.6264072796646442,0.5844155844155845,0.3701366305659126,0.23817417895164583,0.6819050846249511,0.10411488410308456,0.6233431218741932,0.5516913661521271
527,0.5367933239959114,0.44094540608967053,0.38061409412801483,0.35064935064935066,0.13653691597923265,0.10114462128424263,0.5830997148803241,0.1504220298970793,0.4395895049021625,0.3647724885472362
528,0.4576744719359974,0.3795865229065431,0.4082026633323883,0.28571428571428575,0.15767840837467578,0.10568808491483346,0.6501785643034637,0.07867736742845793,0.375883334430244,0.41379134002710666
529,0.5078590830660202,0.3402741317491809,0.3095081321707486,0.17532467532467533,0.10847558642337264,0.06626609042341984,0.7157015669048985,0.12953808984544335,0.3387839605395218,0.28476333283003075
530,0.5288116476314987,0.5386968028397082,0.44673945384539737,0.3051948051948052,0.15594121894538837,0.11067883507290775,0.6112302726417491,0.16736581166070974,0.5375267069268767,0.2516507667211431
531,0.5771465729643203,0.385285078557765,0.4238960444826064,0.33116883116883117,0.15369002375809926,0.12670923844379922,0.5190837136499517,0.07214125116715159,0.38119014487597863,0.4101769152397377
532,0.5916525178482374,0.45261126917390015,0.42567596626816945,0.38311688311688313,0.14602477547191786,0.10892921278899745,0.5789214524384519,0.1214241077175704,0.45018691805563515,0.42789156498906233
533,0.5783494903046337,0.6130032509866202,0.6097466835293698,0.4935064935064935,0.36132660048657367,0.23955158187423264,0.6602258032047192,0.10501712288192017,0.6086639913606465,0.3814815544222487
534,0.35972264194093884,0.09323927702475712,0.060634363236548514,0.07792207792207792,0.004095496534078101,0.004579718168827873,0.35672583564979793,0.1857280224802184,0.09356643874846567,0.6348175998603247
535,0.3468567783751956,0.3347822262669984,0.37149998868657785,0.2337662337662338,0.13759357893085572,0.10520945437896398,0.5633810463395249,0.06918442752412035,0.3311122573186508,0.36938853535591837
536,0.37040856524813026,0.5999170321015421,0.6015520679111598,0.48701298701298706,0.3464706321837386,0.2969628726896745,0.49831273838955487,0.10227484298458539,0.595513867863202,0.3558639122161732
537,0.454093833927682,0.7712499243017286,0.7917160563600849,0.5194805194805195,0.44715151134738146,0.5220583608218156,0.3510476870070104,0.09575262445203098,0.7649837168656334,0.3562243697877679
538,0.40299356312631385,0.4630336998399913,0.44727884853993,0.3051948051948052,0.21696425286347717,0.13845480238060903,0.6866364151854861,0.11291296401868223,0.4601895353690225,0.24894077770978773
539,0.22581666310449877,0.5440930294612305,0.4905081395593825,0.48051948051948057,0.222136747636199,0.23922214592698263,0.38512900608234957,0.13736105594871628,0.5418023497078062,0.3451743648707876
540,0.3606079519536637,0.32014985763492365,0.36903703140966615,0.38311688311688313,0.09986482637397778,0.1133624911336143,0.36222662198760114,0.05853092879959515,0.31613685160116994,0.508895967589032
541,0.32944146101447946,0.7369832613378815,0.4878602418468581,0.5000000000000001,0.2699396757656905,0.21602516688657952,0.5373112582292882,0.2663345067652849,0.7383479559841074,0.1671926952594682
542,0.4790261914311741,0.5215868439478433,0.3006783907321288,0.34415584415584416,0.09848440130715908,0.06939852686055269,0.6139884082769412,0.323009059600053,0.523534452152648,0.12968907499482338
543,0.48474466522204074,0.6119722201165323,0.3655574600624706,0.4935064935064935,0.12789660695836141,0.09887920701678049,0.5564343997511367,0.31090350051360016,0.6139647806320752,0.13184273612607805
544,0.511410395445702,0.24360025661222837,0.27499830494934613,0.14935064935064934,0.09264522040112651,0.04842587577257347,0.8413034248306569,0.06319816972515568,0.24076112942669065,0.3653547445065551
545,0.5145221691019487,0.6300636133160237,0.6857290196655014,0.4935064935064935,0.45011026643702706,0.30714834887319953,0.6402517925694221,0.0768548478410222,0.6236205762001809,0.4181253824535309
546,0.5525133582074248,0.34275907936521705,0.32164254981941826,0.3051948051948052,0.0813269353194741,0.08333852099342427,0.40663018228224973,0.11956442427162328,0.34095784094383935,0.4257055552709192
547,0.451743542824281,0.6578337646882779,0.6280898897890957,0.38961038961038963,0.4636041495888235,0.31488567430183834,0.6435367048962176,0.1189425719249928,0.6539978483387776,0.32827739588965876
548,0.5072376542164151,0.430405098427104,0.410637524685509,0.33766233766233766,0.14492171787564648,0.0919464397642889,0.6892133797421552,0.11631662367031004,0.42792187938636683,0.3977442516817741
549,0.5356614478266241,0.5019653110710313,0.4207280300706602,0.27272727272727276,0.15652517981751646,0.09325380331959347,0.7374439499405865,0.16256528105993345,0.5007597063677611,0.2857521043045694
550,0.585465384638815,0.24572932722541754,0.17211171925637325,0.09740259740259741,0.023351465278154383,0.015438244872378309,0.6373710395098856,0.21228626356062874,0.2460739752605588,0.362059366531692
551,0.6157146611923984,0.5701404817060103,0.44772858434240337,0.35064935064935066,0.18982313669384476,0.12955189382107957,0.6383086775007338,0.18891968569036183,0.5695579525931466,0.3920236817443827
552,0.5571083528229047,0.6140812983514087,0.5924842513944393,0.5974025974025975,0.3003325692241444,0.23881278548724075,0.54124766938766,0.11508163821386286,0.6103150127047343,0.3923455598171838
553,0.5882693275054226,0.7180348978403842,0.4935227752495373,0.5129870129870131,0.2208086487548084,0.1530899540987634,0.6279698946160428,0.2486863032604536,0.7189663836355675,0.16486977857585455
554,0.4681840298836887,0.418989193400577,0.25557313180643315,0.26623376623376627,0.06956750593717724,0.056174271518299145,0.5284290336952917,0.2882720295631498,0.42031471325999326,0.16535694711520946
555,0.5722187437698135,0.8328301564642981,0.7984195513618408,0.5389610389610391,0.596764224600865,0.341336883826245,0.7748160706540292,0.11875213411360885,0.8278612503718485,0.34795992273401755
556,0.38084453396848017,0.5519255842616283,0.4617999356056642,0.38961038961038963,0.1867380516553515,0.1571046618937605,0.5079769387547002,0.1644939568544696,0.5506182416279432,0.17368807757460586
557,0.4398504943360465,0.6816473206516827,0.5386433258117208,0.4740259740259741,0.24337310156852612,0.1945244363088183,0.5378974303850687,0.1887635565425293,0.680841943552097,0.34085026388263423
558,0.43412004926580516,0.6134745477374904,0.46202472487793494,0.34415584415584416,0.19038267346267926,0.14483166068153772,0.5673725523104843,0.2067227807790556,0.6133353198182644,0.353557022700461
559,0.4419037186121101,0.7236777310419241,0.781078921259159,0.5974025974025975,0.6174491685722546,0.461784003152,0.579646301129797,0.07975286962435368,0.7165031830744045,0.515991528635942
560,0.4369675920487469,0.6601456327967434,0.5657817948076902,0.38961038961038963,0.30102667471681077,0.2024628799850797,0.6496882890853489,0.15723343257416433,0.6581871940445897,0.2998913898787574
561,0.47795872711572673,0.47423393884249043,0.5341427874595989,0.27922077922077926,0.2848678864807802,0.18315049421368082,0.6819418818351125,0.0660144605224493,0.46874560334782134,0.2544265079275078
562,0.3951844104944163,0.5990116650682459,0.6556547937119658,0.5714285714285715,0.3349443208166422,0.33167518059917717,0.4238588268768903,0.07502084850300789,0.5927571401213854,0.43965224691801685
563,0.3437820462334099,0.4975300659666274,0.5273025688299321,0.4090909090909091,0.2629170164481714,0.2802272625139216,0.3897672134332564,0.08416136253424267,0.4929387500637332,0.3546686671526903
564,0.559341086704752,0.7397105108709356,0.6559704800129849,0.4935064935064935,0.39982109098914426,0.28681792850887566,0.6062194123943276,0.145619059715985,0.7368853452535561,0.3579184026005364
565,0.5142971112445239,0.4488098764022827,0.49665020108880537,0.34415584415584416,0.26402671797955485,0.17438847509637778,0.6622269503829842,0.07096681478347006,0.4439349056632648,0.3863055166824511
566,0.4690389032497996,0.51022154639784,0.5469742599805947,0.48051948051948057,0.3200991212780371,0.22753316980858415,0.6119708491345218,0.08079183068018403,0.5052983202476982,0.3779745315766484
567,0.4155030712965927,0.17260208206007133,0.16858095771360526,0.13636363636363638,0.02956055892350464,0.023454754864727003,0.5318747133816814,0.09946036694119964,0.17150661128435452,0.479067186464843
568,0.5572740742576169,0.5923050155901806,0.5403282097876223,0.48701298701298706,0.29451250155923286,0.1995873243717861,0.6443413145521387,0.1339158543926393,0.589618118099587,0.40382857475804596
569,0.5276078660805289,0.6694338244164874,0.7301416764786169,0.5649350649350651,0.44946392901327387,0.3191460380347917,0.613165661840503,0.07635791744903342,0.6625323050495528,0.41304022960523457
570,0.4831674638378797,0.5824392732321141,0.4325011074431165,0.25974025974025977,0.1648607913997269,0.12222297608122547,0.5831768629714523,0.21170285743369238,0.582465404005334,0.2257924371586949
571,0.48534621669465305,0.14416620285220205,0.11559559955338676,0.16883116883116883,0.011025477784854295,0.00917552435889583,0.4910166471672796,0.15041516158543544,0.14402768419004092,0.5240285543028964
572,0.5373195010203758,0.26073609375864615,0.2628064002806076,0.1168831168831169,0.0762455888153575,0.03863738291325905,0.8657230759043438,0.09516985418639173,0.2587969123380013,0.34424782693749356
573,0.4644959092673505,0.4851115731483794,0.3562156792068965,0.2337662337662338,0.15559205814237073,0.1039957758176679,0.6521001974910313,0.21292994408575627,0.4852542585917564,0.26840936330231135
574,0.4626509108174318,0.31376842983211495,0.3473891752220762,0.2272727272727273,0.1335855886777473,0.08306083139012797,0.7037626132455121,0.06956231887961334,0.31035765565747925,0.3132783199020682
575,0.42876517271470715,0.164417335282837,0.20236794681474807,0.14935064935064934,0.043125360513412946,0.039468385801309076,0.45905637782071745,0.040533666759940745,0.16186352355072425,0.4976992804431755
576,0.4635334740262843,0.7977758575516026,0.7457882176622113,0.5194805194805195,0.5502032732746129,0.4027600947702059,0.5933223943151336,0.12725581805889913,0.7935971837546965,0.3247052085107911
577,0.3103594775763653,0.46932169170750115,0.48319661663013674,0.4155844155844156,0.27344158443826816,0.21985218961413,0.5345723656765441,0.09274859748970637,0.46547035073956533,0.417144374677171
578,0.4148242659910212,0.5807782271965085,0.6295354891578229,0.5714285714285715,0.3965378631748067,0.3378783947352513,0.501686591062159,0.07785267299443155,0.57492972689298,0.5260291396716319
579,0.41875615552095746,0.6128936784686292,0.6110132255511475,0.5519480519480521,0.31870700822524234,0.28351884392258536,0.4780445369511989,0.10425150736564348,0.6085090538208985,0.4040444033457407
580,0.35619739913307213,0.7769070505648954,0.8286648552159519,0.6363636363636365,0.5902380877701981,0.519543251345386,0.48407169545690826,0.08361339615698182,0.769545380894233,0.46638160680461865
581,0.6256602544490063,0.8139998952664667,0.7433193303547463,0.5389610389610391,0.4166719255466987,0.26597798146954704,0.6880474335851472,0.13566053245475496,0.8102602834449044,0.37345770390191274
582,0.6047119357728098,0.7534539427344484,0.7094441808273446,0.6363636363636365,0.3459593924811226,0.2751125432952925,0.541366099413108,0.12444965298185057,0.7493568070172464,0.5777261899235265
583,0.522724380870894,0.7945135397520798,0.7211171387711488,0.7337662337662338,0.4324853615022673,0.4018260817177684,0.4555274961075993,0.13770858519734125,0.7909949418589932,0.6770913894359436
584,0.42385711889665945,0.6732408325675191,0.6510225727364602,0.5324675324675325,0.41421403516804617,0.3240456237041037,0.5513790977255526,0.11477929321781044,0.6690587166556011,0.35193070396729714
585,0.44353056503508526,0.3626285798291303,0.3383488809970874,0.27272727272727276,0.11089538905548925,0.09777261647658703,0.4814100096445872,0.1219838413285167,0.3607795203632656,0.36007074586552507
586,0.44436377618042455,0.2100902721170998,0.24183274922221676,0.2077922077922078,0.056054903797904856,0.047621320989190925,0.49907956492317246,0.05758289815665396,0.20747146770530023,0.5295398308626411
587,0.4534890688667915,0.3042491038916508,0.2806064798447343,0.16883116883116883,0.09485876679421963,0.06827609081384645,0.5999563232723856,0.12371748097715252,0.30280603337980333,0.37438814937181514
588,0.3314095549692301,0.43806624975346237,0.4739839383675077,0.4545454545454546,0.22832361360268583,0.23247588958067983,0.4105274661865339,0.07746168623933525,0.43368896766511317,0.5324719670009213
589,0.35306573592123847,0.30217955487271,0.3631791046176399,0.19480519480519481,0.127154325929013,0.08197175298223651,0.676866971778255,0.04727986181993943,0.297827912654389,0.5110899139662877
590,0.3790103801911534,0.5452281710333833,0.6354798843284547,0.4545454545454546,0.3736570383368608,0.3120394852698248,0.5129612750336557,0.05654762384871209,0.538130511121768,0.44841613336953284
591,0.415193389895124,0.6969306936370048,0.7215627279553763,0.590909090909091,0.5521976036474664,0.4103245520686226,0.5836739850278786,0.09262935434497105,0.6910637144943292,0.5184051195617533
592,0.48496285340608714,0.44809623671018595,0.38364821322936826,0.28571428571428575,0.14333015292826387,0.09506034092352221,0.6571961913229933,0.15349352638394104,0.44680531190840983,0.36198998607941774
593,0.471019640997249,0.35933177139926514,0.3454103657461233,0.24025974025974028,0.1210805577582816,0.07531698848889441,0.7028422942704645,0.11238129049702733,0.3571855764055552,0.37457497879687757
594,0.5458987192605352,0.5227078214070332,0.46324181552010063,0.3961038961038961,0.22488500047149518,0.1627827179694401,0.5993268531904976,0.14297649501646714,0.5207417414081305,0.33250992261678947
595,0.5098890487065141,0.6082728776302533,0.6346329354157147,0.5779220779220781,0.4112206313456012,0.28138966995538023,0.6382018073255699,0.0897238044407423,0.6029927263570235,0.5504509121782784
596,0.5183799774737331,0.619714610460763,0.6269048561731273,0.4090909090909091,0.3197649677603185,0.23904891148556598,0.5792309398324279,0.09958197279330949,0.6149860370986301,0.3439247282164175
597,0.4576683425083222,0.301515201960595,0.3680338896590298,0.27272727272727276,0.10860033924874311,0.06560406747834428,0.7242453714552507,0.04334065793017278,0.2969576473092022,0.48390084256086413
598,0.4624111402985326,0.39607168456455505,0.42533807339101837,0.36363636363636365,0.1756691957193436,0.13883668952065625,0.544012787602115,0.07932814866260712,0.3922304680380215,0.46273321565599157
599,0.5484262731995843,0.9355714229798751,1.0,0.1168831168831169,0.90570516417258,0.42615641411472854,0.9544421229609042,0.08213356021026891,0.9264927385488498,0.5858112565988195
600,0.2765246469192121,0.10972085911765236,0.1579524285788932,0.16883116883116883,0.03237528254918761,0.028277994942288134,0.4811154254808971,0.007482530139213239,0.10704508811554182,0.6870302700218267
601,0.21520541234612434,0.08007652154338146,0.07318555433631829,0.08441558441558442,0.005170625300598008,0.0073457803898001415,0.2832619722727747,0.10085484117534194,0.07975006730478101,0.7874487358000674
602,0.32433113439095285,0.14857074019888275,0.09844216094958462,0.13636363636363638,0.009517953644242263,0.00936555088911354,0.41358156990875233,0.20822221881236364,0.14897159068392735,0.6105816644194227
603,0.37289508302132524,0.46477575248897496,0.4850745379363702,0.33766233766233766,0.2546796078251686,0.1768136803921605,0.6273893218969074,0.08851967079185008,0.46074186990704674,0.3335034270102821
604,0.17654034285386933,0.3118712419398837,0.35043352430956554,0.2337662337662338,0.12446134146281113,0.10172870911968042,0.5235415649509171,0.06544865947209366,0.3082960070964964,0.3563455792062326
