,mean_nni,sdnn,rmssd,nni_50,lf,hf,lf_hf_ratio,ratio_sd2_sd1,sd2,sampen
0,0.6122651188003763,0.9103224705747761,0.8928831731579976,0.7751937984496123,0.7144826964791248,0.4623478803493313,0.7353911121876344,0.6029277274099427,0.9062604463885344,0.3923937081353258
1,0.5104689222577417,0.7159556142293841,0.8248158950463492,0.7751937984496123,0.5219292586002737,0.7193029594484197,0.3379837314779047,0.46540718721626917,0.7093578017727419,0.4133975933625088
2,0.5957880971844165,0.8365184629769195,0.9113894052149403,0.7131782945736435,0.7211330681390806,0.5755075251945334,0.5942315795822466,0.5122138300066587,0.8303275692364658,0.300477156275086
3,0.3137432696196887,0.5894882414142811,0.7059457061585179,0.6976744186046512,0.5804073714389026,0.5159021006241399,0.5318055526916885,0.4332211444947661,0.5832430885363392,0.37415074287818917
4,0.28623589901983637,0.6216701288513446,0.66551309202931,0.6201550387596899,0.49845811208057383,0.5932639097038158,0.3936319700291403,0.5181019070480132,0.6174381936307861,0.16095230791925208
5,0.2908017316561293,0.6303702585982794,0.6011361543318005,0.4418604651162791,0.360718664616304,0.47373011002984233,0.35524187566865106,0.6126056326238788,0.6280673130364498,0.11096101841157507
6,0.5061965527557293,0.6601186312490865,0.7509908731379887,0.751937984496124,0.545023101540025,0.4541497991220611,0.5679108848402457,0.4731518517085227,0.6543276149332331,0.38312112188786296
7,0.3782978965439141,0.32215203669055004,0.3542204766515963,0.3488372093023256,0.1588269715190634,0.16993959664999908,0.43679624649006615,0.4745170844516118,0.31974088703298675,0.2005052382349412
8,0.44663470540780703,0.5663720172257304,0.6545006798089472,0.45736434108527135,0.38756910962089547,0.44714031691666806,0.40627292383953484,0.4580639896678854,0.5611095055198062,0.16773807728717177
9,0.28821234985780686,0.33683305727998497,0.46768973510671397,0.27906976744186046,0.19537714715898094,0.2237502379789649,0.4082432692734303,0.32973509928997735,0.33110254276672757,0.1920399023537518
10,0.31234179250076655,0.2717646739373821,0.2258145312247174,0.20155038759689925,0.08504899788620336,0.09312452681022339,0.42383899002869224,0.6536980850113701,0.2717393175598012,0.22931887591908112
11,0.30810803915514584,0.29626368772994754,0.3377682626073503,0.21705426356589147,0.21693669788286588,0.14408369451927655,0.7068780439479533,0.44772735164330735,0.2936888816657506,0.17425182872326012
12,0.42955729801106424,0.5184088904503965,0.5976480476348051,0.4496124031007752,0.396025228775503,0.2312066895074619,0.8113677789037042,0.4576410554192296,0.5136424774572225,0.2652345805219086
13,0.29410611338674153,0.30958852680348836,0.37526095890761657,0.24031007751937983,0.2286118877370272,0.17875637088984114,0.6012611693290589,0.41062765862544703,0.3061912056355226,0.22108563991467212
14,0.3607225962613867,0.11880251574034496,0.11076252797031765,0.11627906976744184,0.03134864363199598,0.025257861823139785,0.5443855473528214,0.49646730108626835,0.11856403116284134,0.28834929551553
15,0.4606897254739213,0.5674885162871741,0.673563219493694,0.5426356589147286,0.48428179779151564,0.336679663117308,0.6820646688224661,0.43886016769258474,0.5616680862787703,0.13636333369988218
16,0.4636289563142244,0.362023128192438,0.3735454180552009,0.17829457364341084,0.13018726911254802,0.08110713115680954,0.7429390257436135,0.5234296095309936,0.360010515031818,0.16847503594579588
17,0.423747225634024,0.2909920445008505,0.2816792371942388,0.13953488372093023,0.12446885256165506,0.08978190315275932,0.6436076090016158,0.5543538936995754,0.2899181974549042,0.1736439884520099
18,0.36020608501683227,0.2569419971476759,0.20344733917510072,0.09302325581395349,0.08344785659628577,0.07688649094419145,0.5019092279520905,0.6804609370116792,0.25717616502879814,0.21900615944084662
19,0.3340286360211193,0.5513524164038033,0.6597135765020498,0.5271317829457364,0.5268465292380904,0.45593338049525006,0.5463141340249636,0.43255319032310924,0.5455332369576072,0.23151048007963715
20,0.6494001148657262,0.6277178606041672,0.6161218035768385,0.49612403100775193,0.34003314936238555,0.2124180436176257,0.7567398857815173,0.5881815521661413,0.6249693603805285,0.20437933655040647
21,0.4411466187903279,0.5779949475473234,0.6222592803046906,0.5581395348837209,0.4140087694497777,0.3092423116184041,0.6335205387827968,0.5114452955509221,0.5739699108320173,0.20488383196346033
22,0.5118454486327917,0.6449151138300732,0.8031142715904714,0.627906976744186,0.5281469457550203,0.46893221031314697,0.5321939248939989,0.40701747661000376,0.6370956849649598,0.3096512348116659
23,0.38302369091743316,0.42110296231638433,0.486676664879485,0.4496124031007752,0.2696525977828303,0.28286853492447406,0.44730433677246534,0.4503123015519014,0.41720903845230406,0.18119438178529346
24,0.5820281845964601,0.933301454870935,1.0,0.875968992248062,0.9163854753983511,0.7626063755105006,0.569806916692773,0.5283069153942105,0.926854663048733,0.43684880602543485
25,0.45750583866235206,0.7942303548022231,0.6009994415159594,0.6201550387596899,0.2941147043878358,0.2647104497383681,0.5230796535408294,0.8444911496642189,0.794865784461254,0.038202290034990344
26,0.11067506687433659,0.45877107266079625,0.36982425232454164,0.6434108527131783,0.25134492169510425,0.21175914557130213,0.5584344467290875,0.734401142118229,0.458804294734807,0.0899494025502437
27,0.5214540184533729,0.787345158789656,0.7183472882878963,0.689922480620155,0.3713495984905251,0.3468195581840177,0.5045219626878436,0.6620837873582153,0.7852211015808528,0.3533931101578488
28,0.5434730506366734,0.8658131011152577,0.5847817604321436,0.7054263565891473,0.32871709976265245,0.2236035953296062,0.6945599530384835,0.9766447973029757,0.8678469949653678,0.026014074662535552
29,0.6086103922247037,0.8474244586171118,0.6888878235801031,0.6666666666666666,0.47702967765757054,0.32846454601081465,0.6886412661737717,0.7764574373878961,0.8470664576567594,0.02376184649640406
30,0.57868273899418,0.8480575922129446,0.800123654406757,0.7441860465116279,0.5087310291066638,0.34641475260346744,0.6967899526727533,0.6349300336447377,0.8450962795412794,0.28876115506919714
31,0.5069812564302159,0.5585039467220156,0.48293395111109105,0.41860465116279066,0.29688691654621313,0.231955026016904,0.6035764169424811,0.6898035520179076,0.5577169358981748,0.18161771795699488
32,0.5397143755493456,0.7195839225518491,0.7600197604657389,0.689922480620155,0.5410522544571235,0.4151071425022363,0.617689802665017,0.5332754956763222,0.7149548049868603,0.2524841063679084
33,0.4135490467447973,0.8289874852705487,0.8735845649887145,0.8372093023255814,0.7500765903099074,0.6020669286464612,0.5908377202868063,0.5390765680469755,0.8236857695981166,0.40366130494296315
34,0.5545768157335702,0.7480464074720141,0.8644162917418174,0.7441860465116279,0.6640500393972527,0.6074937047018245,0.5166019978255533,0.46389445221669967,0.7410674139471863,0.3594781278297836
35,0.4397241978921924,0.7820457200205599,0.8835819589943682,0.27906976744186046,0.5577744986794371,0.43608377243861796,0.6060630920972264,0.4808639484247019,0.7753080061993514,0.43686523997580307
36,0.8184511119742284,0.7769299811045381,0.960795219117258,0.20155038759689925,0.8148835538603937,0.5405980522224985,0.7176036236621365,0.4131673714609114,0.7676647383244033,0.22120826448564757
37,0.5588112150336428,0.6437720107624954,0.7680187253888744,0.5038759689922481,0.5104499862410201,0.3572556222487457,0.6777350493579054,0.43756134953240444,0.6370374392299285,0.195154859796682
38,0.5957902827175601,0.43340283889131576,0.40579423476957566,0.31007751937984496,0.18980503964265447,0.1251193367849032,0.7102560943445964,0.6061681109738601,0.4320764324429769,0.14047556606922146
39,0.45158272293792234,0.6932208920458057,0.9072851281973289,0.8062015503875969,0.7826797408828322,0.6823583474215716,0.5430271347752849,0.37336191189665346,0.683351527504487,0.420464067922651
40,1.0,0.699464834501303,0.6197577416695051,0.4108527131782946,0.23443332184098645,0.1377670046678704,0.799088805211694,0.6822311274358077,0.6980480636755887,0.09293206697678774
41,0.8951300000072617,0.7065797102284699,0.6430567192920327,0.4263565891472868,0.35311153352192076,0.21276718770792707,0.7849510557930166,0.6586640594590321,0.7047347019002957,0.10686804460276411
42,0.8098197868965518,0.649990796100594,0.5834462297458872,0.4883720930232558,0.2547319654390634,0.15762286433068756,0.760529310522884,0.6663924228556066,0.6485125351571431,0.2207711896860316
43,0.7335551556738222,0.8911946679508569,0.9516585959544299,0.6821705426356589,0.7104074503448415,0.49135073904842885,0.6873673370147102,0.5300132129353206,0.8851354100927761,0.27648259099364064
44,0.6727787636039975,0.9126504996436329,0.9495294166548343,0.8062015503875969,0.735569549455255,0.5240450170526355,0.6671173476004705,0.5522476718556394,0.9071330461604641,0.4298329788596503
45,0.7738033223421068,0.8855644229554396,0.9096991858309764,0.6356589147286822,0.6718641011338413,0.4608228055151293,0.693006323533596,0.5621988634588398,0.8805328388950997,0.269216548505383
46,0.6305246242030011,0.6354689536726843,0.5804418721228687,0.5038759689922481,0.2997604299068017,0.2220007986066472,0.6370330018541628,0.649756195263252,0.6337834419868585,0.2252809049852486
47,0.5701099354363794,0.7043282375414056,0.7476566020060431,0.7751937984496123,0.4308057621771547,0.369680448506117,0.5504628498533042,0.5285483787901056,0.6996939409730301,0.4083372450466196
48,0.5003287440421575,0.7104516157368138,0.8440926193574946,0.627906976744186,0.6576764919173703,0.6106343253838018,0.5088027511465092,0.4422893038790875,0.7031211040298512,0.2613502708751241
49,0.2839876944142765,0.5721382989859228,0.6753526214871775,0.5503875968992248,0.5726195739793476,0.4543245743795733,0.5971405457444592,0.44295503257351465,0.566385268457587,0.20665494997771866
50,0.41574507204665223,0.6733440197241549,0.6626462005305767,0.49612403100775193,0.4102079774669671,0.38024693966209866,0.5086702492127225,0.5889687878950248,0.6703359637909861,0.11650954692532034
51,0.41305430906963503,0.6328632966075682,0.7258241993827675,0.5891472868217055,0.5170151688386457,0.4070514713440849,0.601511867674561,0.46623381587584245,0.6271420112506626,0.16170675652847843
52,0.3205022742338641,0.5586712589746624,0.5996401955574852,0.7286821705426356,0.45534275226482,0.45895638226804103,0.4670896455188296,0.5127566727721622,0.5548394697322763,0.42022862909021264
53,0.49290672925358625,0.785731532341259,0.7997488638655682,0.5968992248062015,0.5596481500670049,0.5115172535764275,0.5167676225543318,0.566302269072409,0.7814850815497595,0.19693327264059407
54,0.3451776408686049,0.21480686788337633,0.27258020066044997,0.10077519379844962,0.13275535221872864,0.08159599794380744,0.753200021212417,0.374580491999427,0.21205583222932253,0.27610360383828303
55,0.3294917342106536,0.30650817876883824,0.39242015063113306,0.27906976744186046,0.20150161775588948,0.24047982471690643,0.3914535506898509,0.376874988056371,0.3024539391090887,0.2564204087276073
56,0.4101257951960353,0.6344341283934846,0.7394406077231155,0.5193798449612403,0.6649526193618719,0.4558327459146173,0.6933489307670869,0.4542899187854479,0.6283370829209003,0.17379168429932357
57,0.39481760209675376,0.5778422490205457,0.7183538613840271,0.3488372093023256,0.5525533298323896,0.41984008061877187,0.6238836784744287,0.40662914133926376,0.5708800940754556,0.07235142045448784
58,0.5092950596106398,0.6121204920869335,0.568723710466063,0.5116279069767442,0.28744705350547967,0.2606387556505823,0.5190605137996804,0.6330314010001108,0.6102672672208003,0.16880962515448045
59,0.4511696917219714,0.5448475179836534,0.7264993531855949,0.5503875968992248,0.4844248461872209,0.3213762513987088,0.7150912774164613,0.35872671471933115,0.5366316637995776,0.22446108346651306
60,0.39902632506404023,0.7338384027725159,0.8493248160410669,0.6744186046511628,0.6307484052942965,0.5836529873410243,0.5105027015489022,0.4623888279177699,0.726954829345661,0.2706668167252401
61,0.31794859389290586,0.33793439528875646,0.36789988472891394,0.2868217054263566,0.19646735305729207,0.17391639169086634,0.5298855591138956,0.4830145654219601,0.3355064714672832,0.26398684405880507
62,0.5859278751772359,0.6926241633771018,0.8002479808547021,0.5736434108527132,0.6405573462083493,0.4018337389039724,0.7583220867280775,0.46240662673082844,0.6861690834860211,0.3621923511329488
63,0.5138691333415135,0.5613013582813978,0.5219030156671983,0.4883720930232558,0.2613228181781588,0.2247971801735395,0.5470354642281687,0.6275908068444489,0.5596112508945157,0.1746132945063823
64,0.41186156261140616,0.5181127199953203,0.5650696614854831,0.3798449612403101,0.36153750000542473,0.24590565085833938,0.6953823581094942,0.4981673530079789,0.5143087470307176,0.15891027247674
65,0.5144985284991237,0.48912495484879587,0.6243972669437242,0.4263565891472868,0.4127906214998273,0.29011919026056004,0.6736958999031522,0.38629248224690527,0.4827005805496253,0.14267523853952957
66,0.4076062772429896,0.5027585930082984,0.6301301047702846,0.5038759689922481,0.3068987029938204,0.25770023825214,0.5613729842834684,0.39893834272489603,0.4965396649686634,0.1976529196001846
67,0.43607501932553827,0.31225040764065626,0.33878192237370247,0.17054263565891473,0.13212111900504708,0.10016743048873822,0.6139442687339934,0.4819603976319028,0.31005155741877644,0.12672086359698187
68,0.3880344435822851,0.5093501372210022,0.5882828034341916,0.4496124031007752,0.43282638494643,0.2715736248888643,0.7555837898634431,0.45589193985066356,0.5046357286382507,0.1762745112042503
69,0.46966807302029,0.4371447425356823,0.4357124871379534,0.3023255813953488,0.27598215981114815,0.16126687296920175,0.8061587303298489,0.558624052100741,0.43510846326345753,0.1646235692018979
70,0.4275427642937364,0.4663814630790181,0.541706675035747,0.4496124031007752,0.2575421329314831,0.2326572048290298,0.5205550589964263,0.4496201507862998,0.4619773066627154,0.17231776160729873
71,0.5200616758839547,0.5849641483183805,0.7475897240438976,0.5503875968992248,0.4835176853707346,0.38308611559403366,0.5974289009124591,0.3879131048157952,0.577248610527509,0.18602056030372105
72,0.5700998625308302,0.5973506919316299,0.690350397328123,0.4883720930232558,0.46634541026745263,0.3442215068497016,0.6417716804941082,0.45921774303383245,0.5917939326074059,0.14238499239535607
73,0.5407692855034059,0.08435060369993345,0.05550903678888745,0.10852713178294573,0.007148901868861513,0.005266818069645022,0.48203794525597804,0.5829996420617858,0.08486529530895279,0.37257103728827057
74,0.4515635824189883,0.3019872746798115,0.34703071431376387,0.10852713178294573,0.1677678029075269,0.1605138748616514,0.4891844396219998,0.44267576855636237,0.29926441806768056,0.2280933842307566
75,0.4212509521341108,0.16546919736741994,0.1267796443432022,0.14728682170542634,0.03058173931564825,0.025369246183075532,0.529866951456882,0.6364965067754091,0.16581407259128692,0.32299520962709527
76,0.45931527353838164,0.3293812502001636,0.4479315055005245,0.10077519379844962,0.19581856057216782,0.18580041458729665,0.49410266004464115,0.34101630794456006,0.3240932077006028,0.2839765665724251
77,0.3957903097007778,0.2538438651526038,0.3448531284179883,0.12403100775193798,0.14015200252742568,0.10951427212954598,0.5967575488971986,0.3390394429174347,0.24978681050542315,0.3224807525506347
78,0.6201299909346587,0.7187898829190116,0.46608729295206186,0.34108527131782945,0.1691094421174253,0.14105317576125717,0.5612631085455921,1.0,0.7209199234106866,0.09240128523064933
79,0.6628012594015824,0.8544424939208333,0.9348903816383902,0.5348837209302325,0.7063623905282285,0.5320403123926023,0.630264972963923,0.5092696801857916,0.8480024808899459,0.18653902406195572
80,0.5816149682842835,0.6652341728035347,0.7902996281825817,0.6434108527131783,0.5641881004983201,0.5394713477815521,0.4934243196803983,0.44122726342467655,0.6583773453389963,0.2577182404220513
81,0.5993672073100851,0.7635395195278716,0.7469386540170956,0.7286821705426356,0.4467778743848848,0.3887619389758955,0.5428212062894322,0.5990063471217266,0.7602180739586492,0.3878896773702347
82,0.6586373418419691,0.874741845221921,0.9574393949637325,0.6201550387596899,0.6830540629593599,0.4483963459308635,0.7245812905608987,0.509498839415864,0.8681360350981999,0.2848335822060251
83,0.5969254809398443,0.6957371977479301,0.641507646207179,0.7131782945736435,0.3903900003319474,0.2883529296175674,0.6404177561703519,0.6465864798377781,0.6937250035318697,0.14385742549598168
84,0.29769113794938673,0.7599540686850225,0.7747888235620488,0.9534883720930233,0.6384671440386289,0.6266125327022343,0.48058160890123763,0.5638443405236494,0.755818419683042,0.565514894947045
85,0.3854004105679796,0.19251585884296396,0.34796738762497026,0.20930232558139533,0.15525744958421034,0.09186974579082206,0.785367193779033,0.19697897948212972,0.18597190679078177,0.2365173122036447
86,0.6086104364558509,0.9299652356602784,0.9344115142666705,0.5968992248062015,0.6652977551942304,0.5123803795534442,0.6159745782827731,0.5825054436032466,0.9252286667976358,0.26261569374459837
87,0.5470195452276179,0.8323487086250799,0.9974128633336778,0.7131782945736435,0.9999999999999999,0.6276298228106761,0.7598980490539529,0.4384328741701985,0.8234854499140428,0.3595777557295651
88,0.4465763530396596,0.6273833746925519,0.7202716524445482,0.7906976744186046,0.5296348584326753,0.4655558236649857,0.5376885069456209,0.4652058206165208,0.621688038277842,0.4164241961051155
89,0.4526398697792129,0.4841447768165545,0.4652025300168756,0.45736434108527135,0.21137597248588214,0.14878791670792332,0.6669608746781797,0.5924602004986862,0.4823305464518467,0.3002255591262932
90,0.5636068106605956,0.6515654051771382,0.6725438068747733,0.6666666666666666,0.3832458445791125,0.28309052784228655,0.6402806376535918,0.5485116330121406,0.6478191358943169,0.3328606242655977
91,0.24214816465049638,0.7569726679626185,0.9415713696269816,0.9999999999999999,0.9911392045616134,0.9999999999999999,0.46754786173835355,0.4098782525056016,0.7478212976824893,0.5232721834155428
92,0.12963330043042265,0.14091523091744546,0.2689123410057609,0.7131782945736435,0.04567563365054325,0.1161021870450309,0.18045836115995095,0.18155523995799483,0.13549762395200776,0.7502867111831076
93,0.17273289295090666,0.24379248725946118,0.23546006952426213,0.813953488372093,0.10705955865707771,0.09277763788803778,0.535914748387709,0.542922106764602,0.24293691111812385,0.22868358823256546
94,0.251358450976533,0.5635626936926962,0.4373350591387317,0.5581395348837209,0.3054811084228494,0.20954040899224316,0.6881466799052232,0.7888640140660184,0.5639002214023484,0.031345082161560844
95,0.36250921324938523,0.6984972179786095,0.7660701888463817,0.8604651162790697,0.6051598615793615,0.5799353633381985,0.49241525526188373,0.5025751643837642,0.6932030760550048,0.4536633089268296
96,0.4943542098362128,0.5499979192492307,0.5543201634321219,0.3953488372093023,0.365207184128506,0.2618634839623505,0.6594783023504627,0.5609047607860527,0.5472248766999792,0.19958232715057955
97,0.4690382791580676,0.48190656827009654,0.5467673269736567,0.3565891472868217,0.31360651832585323,0.2564981402314574,0.5766134719710996,0.4670432589286596,0.4777469250880847,0.15197022211065597
98,0.4606709896992385,0.23568868734655002,0.28980794361223167,0.2248062015503876,0.12489304449532414,0.08859385484082649,0.6542382576274329,0.3946695429023849,0.2329780772239656,0.3048806354173845
99,0.376213104361683,0.21826472991926432,0.25828700646725294,0.12403100775193798,0.10938699495069035,0.09201198121695882,0.5520668098795316,0.4140519802065469,0.21608592954049957,0.2726777997122406
100,0.4527954283487845,0.42248011696452176,0.46086896775770825,0.20930232558139533,0.27297274858645487,0.1730252733994205,0.7434222552926488,0.49076238628635727,0.41939437527749435,0.12950672910055305
101,0.5531958968755435,0.6762083724674783,0.7850235769693289,0.3953488372093023,0.43079793797839067,0.3615504648322408,0.5630520194694171,0.45802124381747245,0.669783828297612,0.39157141346191116
102,0.4596873651607776,0.3293068107653187,0.4228881896638753,0.32558139534883723,0.15055653200793473,0.20883390138415195,0.3351579128756802,0.37639449409144043,0.3249077983400839,0.23527263847361335
103,0.475099872986565,0.27210651367694205,0.4015846752367598,0.4651162790697675,0.17102001148867957,0.1839051646497327,0.43485023566057146,0.294356369743593,0.26659524080316666,0.27299867636052455
104,0.6114023319097097,0.5624486165928421,0.6635430729389155,0.3023255813953488,0.4226999882317325,0.22235198344441304,0.9012067960829112,0.4429901312389585,0.556805451016469,0.11908174133555549
105,0.4517182529843362,0.06256974740400185,0.01475510206204804,0.0,0.0005635495186017696,0.0002468092161688829,0.3400351725201625,0.7267926685644992,0.06366610802642511,0.31474971442050836
106,0.497346814995443,0.3713663978719487,0.4352209144790419,0.4108527131782946,0.2255772781034308,0.14461488077423196,0.7326372312806128,0.4373000483686216,0.36775399756969607,0.2626646035654695
107,0.290327858084084,0.0,0.0,0.023255813953488372,0.001559071741070321,0.0016847550041115518,0.33603394190510155,0.29095084685586237,0.0,0.54073128386753
108,0.40915525313591394,0.5494952513419828,0.5804485869912648,0.3643410852713178,0.366357818460698,0.3243741309300735,0.5326727403449454,0.5242567097500042,0.545990316019908,0.1181498116513115
109,0.5248993981661929,0.7527126966462813,0.87024022484666,0.6666666666666666,0.776867263368495,0.5584405209691629,0.6612496997457943,0.46368861814444473,0.7456784041365145,0.293479088711539
110,0.4690765448819103,0.6732691370224623,0.6974982082630932,0.5736434108527132,0.5184819610410972,0.4038853956259192,0.6080644062599283,0.5466550016487929,0.6693220878365794,0.1840392773636516
111,0.41133316186097524,0.46526754341567506,0.5898593848208037,0.17829457364341084,0.26016486084172086,0.2476566342509014,0.49369032592057277,0.38905685600938966,0.45926217789512935,0.2087956383879428
112,0.4499918500245217,0.4870641119737538,0.5142924119791051,0.1937984496124031,0.29426038549823363,0.1671783898654263,0.8299301393895988,0.5197215344274001,0.4839727481969015,0.0
113,0.4877019120112909,0.2418086361942932,0.33610770030875403,0.4651162790697675,0.12590124468611305,0.09313437768125572,0.6281533617528595,0.3265094432387068,0.23768327104249135,0.3980228045484232
114,0.47717982636897727,0.4607574785915905,0.5430449870234841,0.45736434108527135,0.3228166726324504,0.25974863905392775,0.5863748847899927,0.43917115515851923,0.45616366943339615,0.18908017816963973
115,0.5017243233284943,0.5696676739800657,0.5613799407195968,0.5348837209302325,0.3350828540874983,0.26200797581660945,0.6037895308359467,0.5804770295552727,0.567130504411289,0.28203736511628497
116,0.6243181323106175,0.7191292385256921,0.8057373892859576,0.6434108527131783,0.6044160223366688,0.4126758713285843,0.6957591245017108,0.48669517799313733,0.7131782878858766,0.25894598712404193
117,0.6402562848018678,0.42150741760824845,0.49880699828192887,0.34108527131782945,0.2474010691598629,0.1158532131931499,1.0,0.43418675389933437,0.41724721292732836,0.22243064287133135
118,0.5866650318568591,0.42180766748261045,0.4871593545601536,0.20930232558139533,0.2566886388248238,0.1492896734701115,0.8088111661076495,0.450863966436446,0.4179180778502424,0.16719362531035542
119,0.5029342737071296,0.5165145543720374,0.599405604119953,0.4418604651162791,0.32954822202508466,0.2657353592669554,0.5852084382109738,0.4524559690758797,0.511635685464983,0.430566529472203
120,0.37524314674396453,0.719358201357761,0.8101559130214051,0.6434108527131783,0.6992475453656506,0.5589999631666684,0.5931158959562356,0.4827203184064135,0.7132819870261116,0.2036094976104021
121,0.5367192325825627,0.7571551287920993,0.8437240706258737,0.6666666666666666,0.7767281653987742,0.5332439861611992,0.6928996339585823,0.49211610702143604,0.7510199576925419,0.24437312463325572
122,0.603474080893696,1.0,0.789627468373864,0.7054263565891473,0.4718928318157471,0.3253644649806203,0.6876460301010165,0.8161709319168771,1.0,0.376683455625045
123,0.4613777207955194,0.7439022118383926,0.8451870086950789,0.37209302325581395,0.6584547674502058,0.5102343399955909,0.6121028831497347,0.4764356912810217,0.7373872596762674,0.18149826747018422
124,0.5688972321138503,0.6433333967047787,0.7535368392772608,0.40310077519379844,0.4930184331330333,0.33925875877714207,0.6892646138016679,0.4508930840277471,0.6370344143476477,0.048129806201146985
125,0.48822303523757427,0.6712898681559298,0.8789106636128939,0.6124031007751938,0.6529856243891434,0.5371651858693129,0.5758820040762195,0.37282513529361494,0.6617223332920874,0.24436622116532275
126,0.47626931238435,0.7835359231953923,0.7937815787154504,0.20155038759689925,0.5314001999046899,0.38648415082564186,0.6520528039685477,0.5695052308791375,0.7793856691992962,0.16518601477683686
127,0.4743298561774032,0.6537239792242128,0.7457486758957107,0.43410852713178294,0.5276212919700258,0.3387191240375582,0.7397318357048838,0.470821380420138,0.6479273182787035,0.33678367389718955
128,0.8821968101160762,0.7641497254483036,0.8076226462459735,0.5581395348837209,0.5654143180493312,0.3756727900760924,0.7148781777147626,0.5343400891182936,0.7592060402439756,0.1899365743610339
129,0.8956172876400055,0.7621459591708133,0.6427104977214471,0.4418604651162791,0.3720962394490284,0.2625466105558542,0.6703750805833094,0.7333462046805546,0.7613344736757546,0.029501667976956608
130,0.5545336041705022,0.7040481179785197,0.9018355785048746,0.4496124031007752,0.5332487130105226,0.5671126874487756,0.442231167517077,0.38826513561895926,0.6946803381666757,0.041071881702797824
131,0.9240226234705928,0.015746384412106518,0.01520454638260478,0.06976744186046513,0.001520695600106624,0.000503656989582932,0.41083512493794017,0.3368004819467537,0.015724614980898693,0.3163854111825836
132,0.9320886409945728,0.06312118022825892,0.01312593092666936,0.015503875968992248,0.0011196824036187767,0.0,0.41480297446786785,0.7462747277965776,0.0642639025784617,0.27967157727923103
133,0.8993894849462021,0.02684609236191278,0.020198925577253765,0.023255813953488372,0.002080316595058484,0.0013516337003000077,0.3964495421684229,0.39665762096009427,0.026992794485434,0.3347478217607015
134,0.9157988216946775,0.03213232091133604,0.023528560837708393,0.05426356589147287,0.001799449378671286,0.0009746058883343869,0.39961817845656833,0.41756563080279996,0.03232021885068957,0.3314361415267727
135,0.8181039939274171,0.045607988093361904,0.04432452936782803,0.09302325581395349,0.0038763364936353455,0.003296087693454592,0.4057486577993776,0.39667477319999367,0.045501075584368306,0.37806679466850446
136,0.8333401514403358,0.10650500798916766,0.06953070498363635,0.12403100775193798,0.008174640566856586,0.007812066515722478,0.42123160938499005,0.6321506788294664,0.10711362792428908,0.30237258905474057
137,0.7327734017514584,0.46523427163131154,0.512492304120665,0.3178294573643411,0.21861588083825448,0.16795872474831944,0.6115692205430888,0.4872256367983838,0.4616802110736542,0.18001961232111807
138,0.6881338207279122,0.20144357201245955,0.19616357387385436,0.21705426356589147,0.037774595026843716,0.028602216513486503,0.5823881512105895,0.5227321417287601,0.20071775422053337,0.29341796053094943
139,0.6712860288284317,0.16528099594644996,0.12485004402709694,0.17054263565891473,0.023364721423569938,0.01830932877684357,0.5439873164766399,0.6443032487659288,0.16567097211133403,0.2787719630347821
140,0.6801389446402504,0.1813983125578187,0.1369053171542995,0.1937984496124031,0.023994198815764454,0.02110118554558861,0.49543827747870356,0.6598391250651368,0.1818048441498958,0.3052552078295596
141,0.6299089806880824,0.08202916728195182,0.10218416376621976,0.15503875968992248,0.014338748401178325,0.015010762191109273,0.4143488271058172,0.35518461348256614,0.08105642919444059,0.4290324803320884
142,0.8179281928959459,0.04810010891786759,0.038248437328352605,0.07751937984496124,0.004040282207873612,0.003089544766785815,0.4269415372386534,0.44688026064510045,0.04825541256981852,0.3135215331598246
143,0.7305847243692332,0.08371979184869495,0.05749487772111565,0.13178294573643412,0.0071850195600051455,0.0073420290258187585,0.39831647005967097,0.5674861939166068,0.08416816460953774,0.3597496233715477
144,0.8499888072539901,0.38268522188105714,0.31090618743387394,0.3023255813953488,0.0931908792342032,0.0535478226385805,0.7913069552877059,0.7088123967953612,0.38270551201657976,0.2654108210488487
145,0.927291958749191,0.10709914812968303,0.11226526360139404,0.13178294573643412,0.010477204501682809,0.009280355037953361,0.45557270937052785,0.43658076353455477,0.10651806670231992,0.26557049481478184
146,0.7104878499642733,0.1640104904631116,0.09004835429691153,0.11627906976744184,0.012024129329987546,0.010756364629190614,0.4594248684814076,0.8188253929128058,0.16517605640790592,0.2440120777118458
147,0.7483250644557133,0.40176351173845826,0.29863220269294016,0.14728682170542634,0.07846217524069816,0.05343167424216941,0.6690271505125223,0.788717724890108,0.4023914946328013,0.1312731860298581
148,0.7705042332543541,0.1538668133618909,0.16758707900081526,0.06976744186046513,0.04938243677184176,0.026521247726665302,0.8036673691861093,0.4423208608503787,0.15280619785613636,0.25186664784852025
149,0.7486825332614064,0.15232001635972275,0.11239277899655047,0.10077519379844962,0.02163842925634117,0.014078643381979348,0.6248649369702659,0.6433882648338249,0.15276484547532196,0.2655215793554661
150,0.7059258306267522,0.08999696642084222,0.07331455183463827,0.12403100775193798,0.008719745062139565,0.008974201120897127,0.40365344540239506,0.5189089324745272,0.09014999299759305,0.31449855069512467
151,0.6582669404457191,0.14251508870664753,0.07073435178082867,0.11627906976744184,0.00917714267666829,0.009050576448863432,0.41749002523540596,0.8281015426983993,0.14373847842936435,0.340577370872428
152,0.7653863093873179,0.4455814547114469,0.3671678459091435,0.31007751937984496,0.13177675217778245,0.08624960354652494,0.7085626675091167,0.7124789869278401,0.44543651975191456,0.1679853271837795
153,0.8853866030768411,0.11253317362392486,0.13064490378496896,0.13953488372093023,0.016413826109059674,0.015650765309717755,0.450517594357696,0.3958286595360285,0.11151285192297203,0.2959286617627114
154,0.8791570484488278,0.1044372626818836,0.11932125583844318,0.11627906976744184,0.019788527383449148,0.016772162723630184,0.5027963448002243,0.39896508098167127,0.10355649851270252,0.22005071909235852
155,0.8985911920784224,0.21428202766423943,0.19917194822918588,0.2713178294573643,0.03949393484873752,0.03268287829829117,0.5396034926996125,0.5555338763738606,0.2137589986346922,0.28803405335647636
156,0.9541968641017953,0.3644959763755431,0.3159718949401955,0.3023255813953488,0.0910543541841419,0.06420736585383857,0.651274429130772,0.6526744698611497,0.3640534855254538,0.2193707814261503
157,0.4363818166178641,0.22980156603277502,0.2679373228416725,0.13953488372093023,0.0688819900599093,0.09975087056224695,0.32012755437297863,0.42440180869566435,0.2276317220945089,0.2580511709607838
158,0.5285551527253454,0.7059358419117834,0.5612491528530363,0.4263565891472868,0.32821444807607164,0.26321127509390774,0.5884441409382777,0.7850082804807581,0.7059689631563549,0.13206282787659673
159,0.4746739644236877,0.46691870617610404,0.5314364849446462,0.6046511627906976,0.27692906049653,0.2802727972939921,0.4640416286844539,0.4639330635354737,0.46284160967673915,0.3316224278248743
160,0.4016577764069664,0.36939801217862217,0.487332489102716,0.2868217054263566,0.2982014133899999,0.21610244116956082,0.6510454882633134,0.3614181517887308,0.3640147538835816,0.18914444278205056
161,0.5835401979299666,0.6876538687976279,0.7528414003785223,0.5193798449612403,0.5517592249976611,0.3382849284474601,0.7751636510975672,0.5035394882174925,0.682482036416602,0.22772640689796647
162,0.5718728388654517,0.8259479063818345,0.8232440285277569,0.7674418604651163,0.632299870526964,0.4431232393487416,0.6777928069836643,0.5857227752359744,0.8219387210573343,0.4051040810517488
163,0.6044921795902802,0.7243994296227269,0.735890714988029,0.7209302325581395,0.5538282870038493,0.4181605374281842,0.6279068007575727,0.565220965090859,0.7205368717674677,0.3366860821261275
164,0.5651415058709743,0.3089475047854155,0.2700157611384117,0.40310077519379844,0.06939804028674382,0.05965749768489008,0.5338755185541609,0.6311567909058619,0.3085552695559346,0.33809030356310843
165,0.5479841599257425,0.6589785282192872,0.7558319620637146,0.5038759689922481,0.6314126705054374,0.4148638233973996,0.7235628774374651,0.467025728371402,0.6530144417178345,0.16767308157379734
166,0.5696372125000686,0.5475971998312783,0.723822597145269,0.4883720930232558,0.49680118581346955,0.4029240098096219,0.5834832072604222,0.3645716326539371,0.5395616867670882,0.17871702385884847
167,0.5803629339331864,0.4851425146987935,0.4791833720102726,0.27906976744186046,0.21431942117769612,0.13522694215007947,0.7435191302689176,0.5709060440547725,0.4829800934604943,0.10496906728404692
168,0.5446504492985573,0.2819013713480372,0.2986047507268411,0.21705426356589147,0.12706123127814528,0.09265333850367612,0.6371700914143553,0.4926167795702644,0.28013963527568986,0.27642079598604913
169,0.5637055608034507,0.4838347105802551,0.45921011484767915,0.3488372093023256,0.229980032200011,0.13666653770131687,0.7900155060654418,0.6022387134756945,0.48216989463120274,0.21036946062339362
170,0.4687583567652134,0.2751364948153683,0.33274468268746865,0.17829457364341084,0.14311769021282664,0.11844482244561524,0.5640574842374794,0.40878433370369394,0.27214703544144725,0.24919562574818038
171,0.47135907646334063,0.731395627861263,0.9129268880865169,0.7364341085271318,0.752718283344362,0.521511827049725,0.6863773096801797,0.40697377982040484,0.722452193215631,0.33732234041373776
172,0.6224861162686817,0.3940194144659017,0.420232578377852,0.2325581395348837,0.15847665935093516,0.09227484356055468,0.7982646105731869,0.5040232723873473,0.39142825504374856,0.1645506169306714
173,0.0,0.013751990592009503,0.1108642192463783,0.3023255813953488,0.0,0.08379168522802316,0.0,0.0,0.008636985480552167,1.0
174,0.2623769260031199,0.40319435605389875,0.46036531047993456,0.3643410852713178,0.24147705870774344,0.19667026129810553,0.57755251270535,0.4575050014196258,0.39964474638828484,0.16870730899460518
175,0.3249362461431955,0.46787565447678175,0.6481339186770092,0.5426356589147286,0.4437934235161293,0.38402588885299527,0.5458827023289446,0.333296615281911,0.45996696044251584,0.21886834131477545
176,0.4953758731587128,0.3472960272998725,0.45644506158102127,0.12403100775193798,0.1988248162059051,0.18344765207101055,0.5095928363088894,0.36029675904326297,0.342236642946129,0.2702678860899621
177,0.5944446239978123,0.6565934385779614,0.4631874460333809,0.3023255813953488,0.1733754292060277,0.14820021595301597,0.5505362248914096,0.8947469596695405,0.6575386609964973,0.1229997371445225
178,0.4090919071367345,0.16444541577811933,0.1327058900427407,0.17054263565891473,0.03121108167312019,0.029152370778721688,0.5152983039587975,0.6175276573176369,0.16455002337817481,0.34081119766507295
179,0.37741171864893674,0.2184945539603122,0.25847924935644173,0.12403100775193798,0.10858009921124578,0.09216614677890811,0.547446373526473,0.41425815799949783,0.21631593200181173,0.2723864242524965
180,0.26006236278980044,0.23283650535223355,0.24525691555393792,0.5116279069767442,0.10805844585203286,0.09244903398744052,0.5428468768591038,0.4876137318009711,0.23141302892058627,0.24756498774489527
181,0.43065755369756853,0.22949681042411046,0.27860648354805456,0.18604651162790697,0.11938272626054297,0.08980853973171198,0.6179300290242238,0.40155739640783095,0.22697518724629026,0.29343685199034614
182,0.8340414587241549,0.6868337038497433,0.6351866818068829,0.4108527131782946,0.3547766328496941,0.2267965285376726,0.7532388847649982,0.6417686364266363,0.6847800375216491,0.1082861979050262
183,0.4690855073855429,0.8346591744842488,0.887244255456946,0.7674418604651163,0.7403365285879284,0.5864641366955542,0.5996225974324729,0.532435226584522,0.8291038321508074,0.35528378853960485
184,0.41783188694824114,0.6002477901336378,0.6799482506446273,0.5581395348837209,0.4919287445532436,0.3968249577038731,0.5859576104813783,0.470801977738597,0.5948922997492385,0.19642168175675317
185,0.4740640901366213,0.7051881079384691,0.8979277949020155,0.7906976744186046,0.7567854608578515,0.6660170265021145,0.5372591029307641,0.3931231936082584,0.6959496484364437,0.4071521655021314
186,0.9224309179184689,0.052407302700157976,0.015214945809899405,0.015503875968992248,0.001403406515171921,0.0003992061433792703,0.4093822728943515,0.6430150230047896,0.053255849643715394,0.2959383921317917
187,0.31848797619726477,0.16138264288353432,0.24431264175782547,0.5426356589147286,0.043003929626516085,0.08651442845970136,0.3163692823182986,0.29692281943443466,0.15755154531410928,0.595798404303005
188,0.5085442719336557,0.6704512392318621,0.7300440801587852,0.5968992248062015,0.5345113080156582,0.45143599381225097,0.5678596165577302,0.5096810236054454,0.6654837178249274,0.2098788183446676
189,0.6837040237951122,0.19033690470758596,0.16332978871182163,0.20155038759689925,0.03013916000580374,0.024446049036955915,0.5342110087831694,0.5987003102894032,0.19023849849441551,0.2999767365771601
190,0.42988395337308494,0.41652865509132336,0.5122301699332485,0.31007751937984496,0.3046547225869829,0.23302448989043545,0.6198653815851289,0.40566526845406525,0.41165797796306847,0.17357189451650384
191,0.3860502078865655,0.4211626997124297,0.4855571939282257,0.43410852713178294,0.26979661731161353,0.2781038191930145,0.4601491638938665,0.45206692129276893,0.4173038326946177,0.17895230549904778
192,0.4241191336430956,0.42896659142286747,0.5004160424303534,0.31007751937984496,0.3035138439018241,0.22444089842101297,0.6399647924559961,0.4363953457882225,0.4245420545710541,0.17904076230256005
193,0.3231442901593713,0.6438871247270898,0.49432721977283145,0.5736434108527132,0.30152303327426594,0.22875204061741752,0.630666082445298,0.8082348179121495,0.6443283895816575,0.033732938865306844
194,0.45296106945495174,0.42281655890233366,0.4614032302680663,0.20930232558139533,0.27300270159057205,0.17383723807707535,0.7413070810472282,0.49055926306627684,0.4197233117264948,0.13103693513426068
195,0.38697553380001604,0.22048505679103242,0.2623037049732255,0.13178294573643412,0.11136292370410908,0.09157641094678926,0.5650864704192701,0.41158208514588757,0.21823848814149457,0.27678139223774195
196,0.5072820438663126,0.6495185534318852,0.5488577442985211,0.3953488372093023,0.3231830552089343,0.2553139380380147,0.5989386469320531,0.7139975221758039,0.6486436714149952,0.1416320045054853
197,0.4387776882419554,0.5883072709336215,0.5756853167222943,0.37209302325581395,0.3568946654946606,0.30919997471941496,0.5465093072141797,0.5889476894688329,0.5856801072965092,0.12160155174221599
198,0.6294502187294033,0.839206032770282,0.9313480722731027,0.6511627906976744,0.6777237730205649,0.49302031979483274,0.6662468053440214,0.4967076215214957,0.8324955513530455,0.30577004701432986
199,0.5155304415591699,0.7895698542457171,0.8649582989354911,0.7286821705426356,0.6454109057136255,0.511963900748688,0.612384715988614,0.5061529037321505,0.7835979209887777,0.3664222478334196
200,0.4028561993491466,0.2233733155761809,0.26256022898077486,0.12403100775193798,0.09145111677902647,0.09543881147794386,0.4493626072455805,0.4186349512092409,0.2211984811672035,0.26620103388896343
201,0.4735263454890921,0.6729514322992298,0.7011676022551221,0.5736434108527132,0.5202891945259801,0.4092465019395406,0.6035315053053355,0.5424863595141316,0.6688893296697348,0.186952564085126
202,0.4559488013301187,0.4288850905911242,0.4710399271534973,0.26356589147286824,0.2735429753621519,0.18848295498315784,0.7031548755905327,0.48689545199146234,0.4256564640479328,0.15863784561030475
203,0.5041987037706099,0.6976031196595254,0.7108257572903112,0.6124031007751938,0.4991528527414378,0.3998085996567429,0.5904769445564914,0.5607672353228766,0.6938247130241999,0.23899076816985637
204,0.8281147453263407,0.08561971195453282,0.060885972605305164,0.10852713178294573,0.006700490383978994,0.006263262407564429,0.4159215625566114,0.5513916530756627,0.085982932247056,0.32833274104665866
205,0.9173389339131248,0.029063645169774138,0.021969681292923884,0.05426356589147287,0.001747245773574298,0.0008864089481606082,0.40171883175541406,0.40244034009574525,0.029212277658912544,0.3286175164758228
206,0.8922441554998517,0.7064747828947516,0.64304172829167,0.4263565891472868,0.3534722921684524,0.21349866119065838,0.7835523491934039,0.6585471798861746,0.7046281566418129,0.1072260056491528
207,0.5974614577350672,0.6908024514611859,0.6423234643312742,0.6976744186046512,0.3915862137767262,0.28590937502926694,0.6500729549516691,0.6390487274171586,0.6886558277067336,0.1429401547564128
208,0.36773881197702685,0.15162619505052455,0.20558389250309167,0.4728682170542635,0.03586796373519607,0.07311335430635159,0.34026231548265384,0.3849749692008664,0.1487615477206535,0.5430132047029028
209,0.6305507749127996,0.8306514064064321,0.9197709419141495,0.5581395348837209,0.7228510462109634,0.538214409751199,0.6375112308571521,0.4986098433918742,0.8240724119220393,0.21154861323873864
210,0.8645110505765321,0.032524462186292305,0.03156593623038885,0.07751937984496124,0.0028442389215420603,0.0020726155769608973,0.4079772361869682,0.37044152567782773,0.032454854159533114,0.3510417900024452
211,0.8250209173791527,0.04401145967288535,0.042271580525977,0.08527131782945735,0.0037235056255363937,0.0031306259455152943,0.40495735703731056,0.396673313643941,0.04392612829697416,0.3743806015255997
212,0.4216150198293258,0.5495687630971866,0.5766274831395033,0.3643410852713178,0.3661895460324454,0.3152323748894232,0.5512171894697571,0.5296162374175045,0.5461708621044881,0.13005876199148592
213,0.40094796330742843,0.005682886859789085,0.004161235336324232,0.023255813953488372,0.0016015846651096085,0.0015591588142291977,0.34727937989836444,0.31334379798854073,0.005716118282240029,0.5037155756805012
214,0.8363547129046585,0.013567965564768553,0.013101087611483667,0.06201550387596899,0.0015260047114921639,0.0006670548914799795,0.4004868251214674,0.33045745699502094,0.013549207805192628,0.3474223314424256
215,0.20897157222400464,0.2427725770452389,0.24230006464991594,0.7364341085271318,0.10930400626894896,0.0922510845291447,0.5508064482017616,0.5242636618631165,0.24168353411973417,0.23827342849917393
216,0.6096056509852181,0.6616054448093918,0.692116011370919,0.3875968992248062,0.4338479505642039,0.24569642097380223,0.8528101757331672,0.527559454865349,0.6572411196638196,0.17745881406514374
217,0.5055415539318102,0.018597778510897223,0.018074416659098466,0.046511627906976744,0.0025039934186302628,0.0023418155261066415,0.36446183139011434,0.33406237726201815,0.018554182306692008,0.47440083895689344
218,0.5032130927780705,0.3628402763240916,0.43437785707121757,0.16279069767441862,0.1938842836935982,0.1662820646662376,0.5636294140196467,0.42630361432001596,0.35882651242187924,0.23781880465915328
219,0.8488259102958335,0.08782838110110754,0.05796450137111993,0.09302325581395349,0.006745780858436322,0.006297369858368753,0.41542126889423536,0.5769375750366025,0.08832870096018255,0.3099632038265097
220,0.4101228739729006,0.2662157142067931,0.34541272243655985,0.11627906976744184,0.14724868548296396,0.12262010308380451,0.569113510319282,0.36567181046113784,0.2625015205422502,0.2982251735431745
221,0.8997582257589438,0.026679937516213503,0.02012416322240594,0.023255813953488372,0.002071939461129665,0.001338940083480276,0.3966648842563563,0.3957616015565445,0.026824117738680445,0.33447294934873617
222,0.5772953383978252,0.8595564961897547,0.9296089354718515,0.689922480620155,0.7052980736267073,0.4993978556666093,0.6801933284611417,0.5193153494341329,0.853383500106811,0.32427114501699317
223,0.21298649554033489,0.1650684366951249,0.26864739798247556,0.5503875968992248,0.051981528712797,0.11165902138596516,0.21841086263388032,0.24754427122487987,0.16053334883243378,0.6165308725758459
224,0.8143868948705455,0.04632735428953147,0.04546733325381459,0.09302325581395349,0.00408298289071428,0.0035274679238723513,0.4059185224555534,0.39585528797081293,0.04620334058648427,0.37907343399891014
225,0.4490515525790615,0.7299191859464382,0.5837925251949786,0.5658914728682171,0.29473335086630204,0.2573521638143097,0.5424511363092696,0.7713635037223325,0.729643505931205,0.06105193046684532
226,0.6607768621889674,0.8643115534311356,0.9458531730648572,0.5736434108527132,0.6950304386618426,0.4913746147333669,0.6761193127086251,0.5093810919272495,0.857790933815755,0.23432748929289748
227,0.8344287478817027,0.024628551973313484,0.015119288948932011,0.05426356589147287,0.0013391295755143641,0.00045493419789491545,0.39740471326911087,0.4107801307323373,0.02481888645470355,0.3160751273458034
228,0.31434622657002675,0.48219172710741126,0.4582880932911071,0.4418604651162791,0.30243031763716205,0.212290440032226,0.6725982299923626,0.609729051388152,0.4801317750941837,0.09747598918389933
229,0.44208450820936274,0.42226870480826945,0.4648308037822978,0.24031007751937983,0.2724630598296936,0.18988772294363668,0.6979640870731444,0.4845527426229773,0.4190588960551891,0.13744149381305765
230,0.5317463084009653,0.6411327320419644,0.6430955581586341,0.6666666666666666,0.4031875323243108,0.31127988230366666,0.6177634897619476,0.5715100741416637,0.6377075077134674,0.16183295099098088
231,0.5059231319381128,0.6706383821243983,0.7278826360400557,0.5891472868217055,0.5334467632446261,0.4482780522729581,0.570529706531816,0.5121365481538108,0.6657386325592379,0.20816275665601214
