,mean_nni,sdnn,rmssd,nni_50,lf,hf,lf_hf_ratio,ratio_sd2_sd1,sd2,sampen
0,0.40607325836130903,0.9179857020776413,0.8417831439325874,0.648,0.8387332926743771,0.8407564879087751,0.3388527856001944,0.17666104568641494,0.9140801403324019,0.392390587226068
1,0.7780840406730744,0.496131492714467,0.2695458457761455,0.456,0.08017517572021027,0.06687460627342565,0.47697443782248394,0.5469354315324921,0.49968795793567333,0.13806054173196952
2,0.7428052991694217,0.5376839695523601,0.3034829633602878,0.49600000000000005,0.10416185068482005,0.07924702533157753,0.5746161144702964,0.5219444281771419,0.5412499783491609,0.14237537784875204
3,0.8613452402843157,0.616351762808358,0.280006268560516,0.392,0.0833704473257998,0.05754919344482561,0.6665565442679813,0.7244391024581218,0.6219532692572471,0.07400521251687742
4,0.7531263119271171,0.43141012835970005,0.20116871683481125,0.336,0.05891698664492383,0.05198690937186408,0.4169285321964551,0.6568142866833455,0.4352879415861043,0.08896671553629479
5,0.6380667849685339,0.747918817004939,0.3958875605312124,0.608,0.19693118708610807,0.16477095841815964,0.49467865889276186,0.5994896968185417,0.7534488707264316,0.16398000231444593
6,0.6730092511864222,0.5817334303790483,0.27082419689211745,0.42400000000000004,0.09317799674607902,0.08220347408021082,0.43087566411087896,0.6949154424900092,0.5868967520230555,0.10595810474016934
7,0.8666756965001455,0.405154806319015,0.24913665359302856,0.256,0.07696341159506967,0.04789624132230127,0.7769399612309122,0.43937504791753934,0.4073355253914783,0.15645995096445925
8,0.28126360570319,0.8575842201624654,0.5880080700576042,0.912,0.5258736844116846,0.512996258865063,0.3609096084978972,0.3840550386339061,0.860460082976866,0.26700136443564093
9,0.5240576755170033,0.6957201445344814,0.43161407222628323,0.76,0.24444077969881808,0.22813286624287807,0.39546071324564747,0.4584196902418536,0.6993112508133612,0.20214462831713315
10,0.8146641654744192,0.6856859246493602,0.279370541295716,0.48800000000000004,0.06947163124985697,0.05802489964187734,0.4706835595422847,0.8464332583277052,0.6925195263074253,0.14360365918745638
11,0.880844069749049,0.7587664718657056,0.4378775143774025,0.49600000000000005,0.197104026497675,0.13702525564720042,0.69179922911156,0.5227048581820046,0.7635054735831591,0.3945528899606401
12,0.8279963910034754,0.6104764076652485,0.3638377129436966,0.536,0.11693049961692252,0.08702917770315788,0.6012334164668605,0.4851864585188218,0.6140251232554461,0.15774051328022215
13,0.8705439235395646,0.5322931531384483,0.20963795960948067,0.34400000000000003,0.051819759598366426,0.04121932191513432,0.5010999939289371,0.8386967302990029,0.5378044222907276,0.047494526853778585
14,0.7833568567974799,0.6035953490289866,0.3453538909926642,0.512,0.12224460330537673,0.09487153130729754,0.5595185410439782,0.5179679326611013,0.6074673596154059,0.18248587034687502
15,0.6518590817021949,0.7329748532055202,0.413126313805838,0.624,0.19782647893617858,0.1598766523032426,0.5291223069754336,0.5419687697497755,0.7378039598937375,0.14658797983057004
16,0.5893495624842519,0.773419834556582,0.5493417383202694,0.34400000000000003,0.31156716271169554,0.26035214694489067,0.501452055393171,0.3535844264533258,0.775439219978318,0.6431892124928086
17,0.7828921819516049,0.8534925244079049,0.52474538747448,0.24800000000000003,0.32810471441447603,0.2829328414705031,0.4711107578512649,0.4728840004111833,0.8579911071770696,0.13893518806012845
18,0.7313813267037735,0.4401312592562041,0.16284407098346398,0.312,0.031655688811517,0.027876214160372264,0.38968859801976163,0.8583088507360401,0.4449398674956625,0.10839987009255156
19,0.7920969192416515,0.7468355749779374,0.3509915403431378,0.5439999999999999,0.11689458698860289,0.09936808478676275,0.4699233103121384,0.7123461723862121,0.7533287984328142,0.15929792020937877
20,0.5884362381021117,0.6505656589232247,0.402699019919139,0.6,0.1975478169643086,0.17291585205417806,0.4516484808599579,0.4575036094410061,0.6539525814746616,0.16860833330838126
21,0.7514518036974515,0.9042909568732206,0.5124828182606969,0.5439999999999999,0.22003714926574844,0.19557953848761714,0.4386512033822547,0.5476061823464686,0.9101467673809842,0.24045353477847853
22,0.8129041760788068,0.6225784078555251,0.4968982542911343,0.456,0.2647014160338184,0.188196670465194,0.6722189858252143,0.2684133958946695,0.6225178318570118,0.3721380165857717
23,0.7678233476745336,0.6963361152481933,0.27193456566943697,0.52,0.08248959928020817,0.0734374322549045,0.4198135692797317,0.893436371755435,0.7034885033251301,0.1434550849150074
24,0.729273768618382,0.6118696042644194,0.4915312428335967,0.504,0.25980717639519263,0.20833247814291886,0.5410549714110386,0.2638793633612597,0.6117040544897104,0.43558838165354075
25,0.9682620269793561,0.6104873143330207,0.36953834625971593,0.4,0.10675358141468488,0.08127230107793817,0.5747951233948965,0.4722444310236833,0.6138844400467911,0.4081934415555595
26,0.7426865726883839,0.49855129788792973,0.3975625758726291,0.40800000000000003,0.17018297257462398,0.12439106055747381,0.6316222184805385,0.2675963622465015,0.49851665431867853,0.324331206031203
27,0.8225716269710245,0.5742881809676033,0.5046567200373892,0.448,0.23944923390399037,0.15339354126420993,0.7957483712310769,0.20569212906167345,0.5726463488137604,0.3699730667963862
28,0.9999999999999999,0.5616276866080905,0.43556693627141374,0.36800000000000005,0.19071289131273747,0.12611501022550747,0.7500795606064894,0.28701361391702385,0.561984756782317,0.27634537130201237
29,0.6728270749750945,0.7916531782346782,0.6395953582612182,0.696,0.3691791652299194,0.3038347704271343,0.5182561881645236,0.2612110240249794,0.7913179797430085,0.6584091296227781
30,0.30126262690937666,0.9372264835560288,0.8950746026366649,0.584,1.0,0.9999999999999998,0.34121138528652695,0.15056590369257816,0.9318675973724366,0.7923137111810986
31,0.7655971383352856,0.7477075341424273,0.628557634104809,0.48000000000000004,0.3880845552938458,0.29957397293992566,0.5856904296806116,0.23404098288873476,0.7465662757152218,0.3415996621904292
32,0.7717990441761741,0.6067553110412721,0.5579703715329044,0.5519999999999999,0.3181705991525391,0.2366805770265473,0.6239217810868887,0.17728726054526212,0.6041170734768715,0.3611296475257586
33,0.627751434671071,0.6041324537968735,0.540525201835571,0.568,0.32785813909322126,0.2571383390868978,0.5669441443203724,0.19422387553690368,0.6020573787316503,0.48529960004308126
34,0.8279348410178636,0.4986025629805946,0.39969671707136145,0.392,0.16199701894179266,0.13078523958125418,0.5265588339497635,0.26403774467218855,0.4984960386581111,0.3160330939392322
35,0.7875158783152426,0.6419522767633336,0.3717705254907612,0.592,0.16262941139481357,0.12610779449260442,0.5675985710831892,0.511464034602531,0.6459523785381178,0.15390930729645286
36,0.9281318232438106,0.6714179211765106,0.41564365012863846,0.42400000000000004,0.16223706980676264,0.11684584614659632,0.6466163356876187,0.45854052791313327,0.6749072642197657,0.19569188105695984
37,0.9682620269793561,0.6104873143330207,0.36953834625971593,0.4,0.10675358141468488,0.08127230107793817,0.5747951233948965,0.4722444310236833,0.6138844400467911,0.4081934415555595
38,0.7426865726883839,0.49855129788792973,0.3975625758726291,0.40800000000000003,0.17018297257462398,0.12439106055747381,0.6316222184805385,0.2675963622465015,0.49851665431867853,0.324331206031203
39,0.8225716269710245,0.5742881809676033,0.5046567200373892,0.448,0.23944923390399037,0.15339354126420993,0.7957483712310769,0.20569212906167345,0.5726463488137604,0.3699730667963862
40,0.9999999999999999,0.5616276866080905,0.43556693627141374,0.36800000000000005,0.19071289131273747,0.12611501022550747,0.7500795606064894,0.28701361391702385,0.561984756782317,0.27634537130201237
41,0.6728270749750945,0.7916531782346782,0.6395953582612182,0.696,0.3691791652299194,0.3038347704271343,0.5182561881645236,0.2612110240249794,0.7913179797430085,0.6584091296227781
42,0.30126262690937666,0.9372264835560288,0.8950746026366649,0.584,1.0,0.9999999999999998,0.34121138528652695,0.15056590369257816,0.9318675973724366,0.7923137111810986
43,0.7717990441761741,0.6067553110412721,0.5579703715329044,0.5519999999999999,0.3181705991525391,0.2366805770265473,0.6239217810868887,0.17728726054526212,0.6041170734768715,0.3611296475257586
44,0.627751434671071,0.6041324537968735,0.540525201835571,0.568,0.32785813909322126,0.2571383390868978,0.5669441443203724,0.19422387553690368,0.6020573787316503,0.48529960004308126
45,0.8279348410178636,0.4986025629805946,0.39969671707136145,0.392,0.16199701894179266,0.13078523958125418,0.5265588339497635,0.26403774467218855,0.4984960386581111,0.3160330939392322
46,0.6150990909708326,0.6897766736149682,0.3532070574201421,0.584,0.16973189297498356,0.1463640526595,0.4635351215875818,0.6239256470060093,0.695161051113085,0.15675264305397596
47,0.7875158783152426,0.6419522767633336,0.3717705254907612,0.592,0.16262941139481357,0.12610779449260442,0.5675985710831892,0.511464034602531,0.6459523785381178,0.15390930729645286
48,0.624700973254145,0.7000537276371572,0.406304133602504,0.6799999999999999,0.18906663750441682,0.16999367605014415,0.42635600150513053,0.5141310493914859,0.7043824872369764,0.2246122873494104
49,0.9281318232438106,0.6714179211765106,0.41564365012863846,0.42400000000000004,0.16223706980676264,0.11684584614659632,0.6466163356876187,0.45854052791313327,0.6749072642197657,0.19569188105695984
50,0.587383113048565,0.10405728264002106,0.1173431833257768,0.13599999999999998,0.022258722443455867,0.02219168524694301,0.2848482542547234,0.12081595756871333,0.10277995758310518,0.4913080435184033
51,0.6650890500946193,0.49614067861221345,0.4863335888152842,0.584,0.22525615316825137,0.20135281364687263,0.4336861968747584,0.14161973065103894,0.49283709231559036,0.4756897683545369
52,0.42468869460786063,0.5758288911067846,0.5505116001789994,0.744,0.3489284847222635,0.382510971589754,0.26449778139872826,0.1543820170168737,0.5725323174379408,0.6647381903854731
53,0.6837674679223268,0.8911564010020987,0.740742376855008,0.624,0.5927986424056523,0.49958702048756404,0.497516168766702,0.24184143326726915,0.8900809855413001,0.417989373775294
54,0.6969963394308801,0.3650082612293708,0.3379460030527521,0.30400000000000005,0.13792928760017073,0.10256781359921545,0.6073304042389078,0.1776252002947506,0.3633382130134845,0.2807625188391746
55,0.5876705923342088,0.40551409075938405,0.3795236884632066,0.34400000000000003,0.1973057116107261,0.18177054295277023,0.40494390849672324,0.1703998570960248,0.40350545586168374,0.3924100114840402
56,0.6678181102296413,0.3709918190911047,0.2526758803354046,0.19999999999999998,0.09003634547513649,0.06042755269539737,0.7015594410456487,0.365214699097666,0.3723036931631423,0.3758621453603187
57,0.6772459845065889,0.014300719256424774,0.03922125043882772,0.07200000000000001,0.003957543324238656,0.005152888572231634,0.09208342101339506,0.0665798551188369,0.013205451948046301,0.5926983335525089
58,0.6123219777684915,0.4639635701559288,0.4925709912428782,0.512,0.2546220832348991,0.1860242374472365,0.6406283295702178,0.09860599635748923,0.4593424508425943,0.3881364116175079
59,0.607305521665071,0.5944019008383098,0.44502870937218664,0.336,0.21750843876302892,0.14498186018761708,0.7441309876471065,0.31198004435501037,0.595283312786436,0.34958669981214385
60,0.6474330272077581,0.40382369197741075,0.4547687460815105,0.48000000000000004,0.15533147121922114,0.12680298987042518,0.5147337589064069,0.07100140436647362,0.39869268348773246,0.5638170795221731
61,0.5116485607581148,0.6903611118286237,0.6686004686571523,0.648,0.5148891235798304,0.4673710551800459,0.4253473582130918,0.14483387796889458,0.6860696919992278,0.5302308663673243
62,0.6182400228490524,0.44688324243483524,0.39861489676183076,0.43200000000000005,0.18722843590586893,0.14967959064910127,0.5391439199723835,0.1976322858061541,0.4453932725689326,0.420326400249766
63,0.7588110328362466,0.43894567569209986,0.29669915177270884,0.29600000000000004,0.10442461732507254,0.08001958119971106,0.5674266860855244,0.37624060307783047,0.44055650770175947,0.2965013841973762
64,0.4426731989659277,0.6950306691092982,0.6844109700408615,0.752,0.4844590815046845,0.5380238231380816,0.2554524017042419,0.13491210251586516,0.6902674630489192,0.6914576032853493
65,0.6744245187312011,0.7475085320423656,0.6261747975824786,0.5599999999999999,0.4053198473243639,0.33454354242399137,0.5160921226456405,0.2363985448885767,0.746443260518121,0.4446798259068957
66,0.6478626039687491,0.4119022797623708,0.3075157767100346,0.256,0.10996444933908123,0.08453140646083515,0.5659489417467896,0.30789130568976275,0.41254229496943007,0.2926031865892458
67,0.5865475585410266,0.42020728788143835,0.40577027539514676,0.336,0.22950000004678361,0.1678562515990304,0.6374964987545015,0.15229544654924787,0.41764994376841524,0.3378191931076233
68,0.5330202507652549,0.5670445031948949,0.46613518457144343,0.392,0.23892259112867723,0.2389527593929215,0.3359406867612349,0.24824578997013846,0.5665361472210582,0.35343958209334636
69,0.6034853140436495,0.685951058201634,0.5888611631746704,0.5519999999999999,0.3692106259107106,0.2515676830191267,0.7279994094955893,0.22026912994034553,0.6844826414905495,0.5082059239741713
70,0.7401881773905282,0.47902986060288943,0.37808166660362785,0.36800000000000005,0.16876308712919474,0.11054768214831132,0.7576197483809806,0.2738111061551891,0.47912161557002697,0.2833062607037625
71,0.7283597429447145,0.672115400164007,0.5567408341076893,0.5439999999999999,0.33922586589772785,0.24391577552632657,0.663187754634216,0.24372020849774834,0.671371200354584,0.4581925797772861
72,0.7057671177800139,0.5131884827710183,0.4083125295414119,0.456,0.1813040598446262,0.14281441518694116,0.5536509591346461,0.2691709814112776,0.5131807031374661,0.4015203098367026
73,0.7012499722275173,0.4558598599690252,0.31614229115565406,0.28,0.12664547231457102,0.0987302099646974,0.5559537645876351,0.3597167445594457,0.4572994922327631,0.3183910667989666
74,0.5648873630694892,0.5933107467239391,0.4415796026031442,0.5599999999999999,0.23761947444413964,0.22786543491994504,0.37148883607478766,0.315996583387815,0.594269709260964,0.49774229357250044
75,0.5971944017366612,0.5877299935273147,0.46802040349749996,0.528,0.26872950403328577,0.19405006781297987,0.6547352916877589,0.2695111778600857,0.5877064462173797,0.38681911652653134
76,0.6631835406333108,0.5390749379338916,0.4410491887461607,0.512,0.2219428786384573,0.20083242131177143,0.42233282539364847,0.2511940129415644,0.538663122486292,0.4723756550008057
77,0.6837674679223268,0.8911564010020987,0.740742376855008,0.624,0.5927986424056523,0.49958702048756404,0.497516168766702,0.24184143326726915,0.8900809855413001,0.417989373775294
78,0.6969963394308801,0.3650082612293708,0.3379460030527521,0.30400000000000005,0.13792928760017073,0.10256781359921545,0.6073304042389078,0.1776252002947506,0.3633382130134845,0.2807625188391746
79,0.6678181102296413,0.3709918190911047,0.2526758803354046,0.19999999999999998,0.09003634547513649,0.06042755269539737,0.7015594410456487,0.365214699097666,0.3723036931631423,0.3758621453603187
80,0.6772459845065889,0.014300719256424774,0.03922125043882772,0.07200000000000001,0.003957543324238656,0.005152888572231634,0.09208342101339506,0.0665798551188369,0.013205451948046301,0.5926983335525089
81,0.607305521665071,0.5944019008383098,0.44502870937218664,0.336,0.21750843876302892,0.14498186018761708,0.7441309876471065,0.31198004435501037,0.595283312786436,0.34958669981214385
82,0.6474330272077581,0.40382369197741075,0.4547687460815105,0.48000000000000004,0.15533147121922114,0.12680298987042518,0.5147337589064069,0.07100140436647362,0.39869268348773246,0.5638170795221731
83,0.5116485607581148,0.6903611118286237,0.6686004686571523,0.648,0.5148891235798304,0.4673710551800459,0.4253473582130918,0.14483387796889458,0.6860696919992278,0.5302308663673243
84,0.5907721640220166,0.5063186902206844,0.3646687674960528,0.37600000000000006,0.18136935592208042,0.1468171244618244,0.5259986159440233,0.33601582625099957,0.5075102672925911,0.3324673980092222
85,0.6182400228490524,0.44688324243483524,0.39861489676183076,0.43200000000000005,0.18722843590586893,0.14967959064910127,0.5391439199723835,0.1976322858061541,0.4453932725689326,0.420326400249766
86,0.4426731989659277,0.6950306691092982,0.6844109700408615,0.752,0.4844590815046845,0.5380238231380816,0.2554524017042419,0.13491210251586516,0.6902674630489192,0.6914576032853493
87,0.6744245187312011,0.7475085320423656,0.6261747975824786,0.5599999999999999,0.4053198473243639,0.33454354242399137,0.5160921226456405,0.2363985448885767,0.746443260518121,0.4446798259068957
88,0.6478626039687491,0.4119022797623708,0.3075157767100346,0.256,0.10996444933908123,0.08453140646083515,0.5659489417467896,0.30789130568976275,0.41254229496943007,0.2926031865892458
89,0.5865475585410266,0.42020728788143835,0.40577027539514676,0.336,0.22950000004678361,0.1678562515990304,0.6374964987545015,0.15229544654924787,0.41764994376841524,0.3378191931076233
90,0.5330202507652549,0.5670445031948949,0.46613518457144343,0.392,0.23892259112867723,0.2389527593929215,0.3359406867612349,0.24824578997013846,0.5665361472210582,0.35343958209334636
91,0.7401881773905282,0.47902986060288943,0.37808166660362785,0.36800000000000005,0.16876308712919474,0.11054768214831132,0.7576197483809806,0.2738111061551891,0.47912161557002697,0.2833062607037625
92,0.7283597429447145,0.672115400164007,0.5567408341076893,0.5439999999999999,0.33922586589772785,0.24391577552632657,0.663187754634216,0.24372020849774834,0.671371200354584,0.4581925797772861
93,0.5648873630694892,0.5933107467239391,0.4415796026031442,0.5599999999999999,0.23761947444413964,0.22786543491994504,0.37148883607478766,0.315996583387815,0.594269709260964,0.49774229357250044
94,0.5971944017366612,0.5877299935273147,0.46802040349749996,0.528,0.26872950403328577,0.19405006781297987,0.6547352916877589,0.2695111778600857,0.5877064462173797,0.38681911652653134
95,0.6631835406333108,0.5390749379338916,0.4410491887461607,0.512,0.2219428786384573,0.20083242131177143,0.42233282539364847,0.2511940129415644,0.538663122486292,0.4723756550008057
96,0.7437485534772313,0.5511980403699642,0.476599920837147,0.49600000000000005,0.21372076903403978,0.18483179351022033,0.46397895787088494,0.2159224363586092,0.5498970260604401,0.4160879189751051
97,0.6592456226104156,0.5618660587715705,0.4461783416764211,0.48800000000000004,0.22491455237347013,0.19069098216915123,0.4836297390087919,0.27106067667173406,0.5618843872243926,0.48176954106273195
98,0.5823249706698334,0.6503361476653948,0.5236614564685533,0.576,0.3183282379485149,0.27647237287887194,0.4639842104057108,0.26261050602486624,0.6501192610927063,0.452931442062276
99,0.7541851107476397,0.6773381134807803,0.507967915796136,0.512,0.25204862611704837,0.1965284492025132,0.5697639153640774,0.312508280038312,0.6783135757879623,0.41046654230882273
100,0.8233594896732125,0.5139369428085976,0.25848974014263215,0.312,0.06935685148784407,0.06428760280804695,0.38109220083226636,0.6136686145803478,0.5181003192916098,0.2449236999981954
101,0.7936060864494151,0.7868283916515466,0.6311109884279819,0.6719999999999999,0.38144723316916024,0.2901477672517793,0.6015028497462966,0.26624001385943374,0.7866473041978733,0.5871139309649214
102,0.7818471004582136,0.6243813626442059,0.4872631602942775,0.48800000000000004,0.20410799663195336,0.17104574591992763,0.4936572204460943,0.28368378663169425,0.6246788792485668,0.4012393176858601
103,0.7138084077098364,0.6574355501982193,0.4532809931162518,0.448,0.21827625320501556,0.16266646313710625,0.6158847952991398,0.3735320319311526,0.6595719749477112,0.3280885786266416
104,0.7316852577776433,0.6024407994691511,0.42322702655696376,0.43200000000000005,0.21600891000571742,0.18278933423362548,0.48497171337229683,0.3576141702019624,0.6041724356305789,0.31196823671852064
105,0.7407546536382242,0.7165636954378873,0.5706377204312111,0.448,0.32631760477956184,0.22875468300590418,0.6921410649950761,0.27071552475324145,0.7165334762298883,0.29002801393728667
106,0.9264931709412593,0.7077244795836288,0.49755324319585226,0.48800000000000004,0.18119927248673703,0.13163196242237385,0.639937625326797,0.36048628523985804,0.7097421307393038,0.3678601298817163
107,0.8397578139673548,0.7694039085928475,0.5281516103438851,0.49600000000000005,0.24566149398540074,0.1643428177210669,0.7427033682172612,0.3805627428562607,0.771965577321485,0.4063706616881472
108,0.7026283906106249,0.7693996831199584,0.6697450119990502,0.632,0.4796436093362763,0.39600870949606287,0.5169888513379359,0.21095403784176947,0.7674248393290948,0.5540627420946015
109,0.8896151006926293,0.7081415201526438,0.5548644151992022,0.52,0.28663199717776056,0.2035675768625071,0.674862167665305,0.2818916422014305,0.7084059382602962,0.400478643863715
110,0.8197663927031101,0.612458507573856,0.3377628556300398,0.30400000000000005,0.1380934220261587,0.11229984147888276,0.5160183363108837,0.549431403877733,0.6166916841704829,0.2797053574042036
111,0.8053887367076803,0.7759073164015682,0.61115318426921,0.584,0.373574128907115,0.2625818889356981,0.6909511263028063,0.2788634305609341,0.7760936297068591,0.5516453460013331
112,0.8288478348551044,0.6788856688075938,0.5888987279401644,0.584,0.33993064721322097,0.25732094046820075,0.6055023394055992,0.21346079831530074,0.6772159073358315,0.48425563513104386
113,0.8231591162870154,0.5363168358755498,0.3488017945314936,0.37600000000000006,0.11662981565345397,0.0950400590685278,0.5099554181675925,0.41120008741548875,0.5386619472584145,0.27443346797232837
114,0.7335619111952897,0.4764104224399508,0.4561318033098454,0.448,0.2532345836861681,0.18023610736352366,0.6701759495477291,0.1555604219670369,0.4736590547990146,0.4087106614190782
115,0.796904785309107,0.5659010052735005,0.38138120815492965,0.384,0.15321907022895997,0.11109047697342762,0.6376621700949643,0.38645807628053397,0.5679969896127892,0.3851243738056098
116,0.7261391765937958,0.3334298667170509,0.3094610553913641,0.34400000000000003,0.09179925212680155,0.12161224796390721,0.12910835412386945,0.17723819400141239,0.33187671151962883,0.48797919685539637
117,0.4002632025363152,0.8016092093618002,0.706043354406673,0.84,0.47095095414238014,0.6499080949756962,0.10662121546048609,0.20314677424401317,0.7992563376744211,0.7845137850306659
118,0.6176881667089208,0.9423470745029944,0.7034358277242787,0.712,0.4093017538713426,0.4185181264148833,0.3203332580638556,0.31951436935941235,0.9437940714948578,0.5596983536011729
119,0.6347836829383532,0.32582676194936055,0.23943275703084899,0.224,0.07052514527339593,0.05326234146268681,0.5656357516685657,0.31317161406626637,0.32645582117401256,0.3631934767620242
120,0.6042751501215081,0.39630944487978537,0.3640705656517274,0.44,0.16877891092117245,0.1628387593948595,0.36315355519431414,0.181238518957901,0.3946010750139432,0.4548758691061834
121,0.676859090763951,0.4169056786572237,0.3575464250979013,0.43200000000000005,0.10499354267120005,0.09876535135036998,0.3779708317283349,0.2214005889069448,0.4160244806571416,0.35814770273155816
122,0.5216826114480883,0.5238872299499452,0.4504702051854331,0.52,0.2572265277054451,0.20394252101952012,0.5525993095701425,0.21942124368259752,0.5227370286370899,0.5754626687675111
123,0.6228764885764452,0.6791435375302918,0.5665168245943434,0.47200000000000003,0.353032825449158,0.2557646146793458,0.6550789892630946,0.23909308349020542,0.6782575623891458,0.4620402831382251
124,0.6348389798098552,0.4646449598328328,0.37487841636857866,0.36000000000000004,0.15651274370763263,0.14253602383406025,0.4123794871356369,0.2594048298998741,0.4644653162655934,0.4352461663576169
125,0.4268614509180463,0.6704136466429157,0.4415860931128921,0.6,0.2505305071908137,0.35235297485429223,0.09469530527575276,0.4090020866656,0.6731759125389318,0.39615827418475236
126,0.6539097214218018,0.7009003724873653,0.6005214823620396,0.64,0.33515771206825085,0.27675986222156596,0.514013715511862,0.22145528343634813,0.6994387334444327,0.5318244813517203
127,0.5452378036253261,0.7461647417049638,0.6504929035583236,0.696,0.36756172611548404,0.36809214615175617,0.33718977521308846,0.2100952587528918,0.7442170242500052,0.5874426757168891
128,0.42421337519373015,0.5828669227496174,0.5189975923077786,0.744,0.2849098696974496,0.25166125409075635,0.4470235838711154,0.19742399956280954,0.5809568790696524,0.8314663790011168
129,0.418528149674641,0.8581586377704784,0.7663915644011593,0.856,0.6700968509885763,0.5543692801205483,0.5168075627804938,0.19401227214549266,0.8552632825789446,0.695448015853144
130,0.6133626989202928,0.5003305967372518,0.3539353490593333,0.36000000000000004,0.16890921323172062,0.12679059310861893,0.6026337570625928,0.34834715044859843,0.5017018628841323,0.3521678394043444
131,0.6912323567827939,0.18871786033617002,0.21402689115272927,0.28,0.06105657283503253,0.0459378418665015,0.5616814562587304,0.09254233280314672,0.18630330495002118,0.5158112482424178
132,0.8436898914087322,0.46829482910336784,0.3992446441848004,0.40800000000000003,0.1571815542353984,0.11412034787004338,0.6368698197312277,0.22493866841114407,0.467388355316407,0.31734084061688245
133,0.772851983510776,0.572910399161578,0.36451585157661665,0.41600000000000004,0.14037964387154453,0.10297878881909489,0.6224100996115496,0.43033283103551656,0.5756327214112865,0.41670888601536016
134,0.7794863601421663,0.6817863804364078,0.47574996324810126,0.536,0.2437417687005982,0.1827286557977374,0.6113607956439915,0.3653263427442297,0.6838356683427943,0.4686962239043655
135,0.19363366081594713,0.6582972460604937,0.6786254587215453,0.992,0.6053130911363784,0.798208643554037,0.13536558407104415,0.10906791816687134,0.6525604314059656,0.9950434380850313
136,0.5025353794872941,0.7269401562022555,0.6602746132830054,0.752,0.39962721633180875,0.4154980725102596,0.3066436442444752,0.18387025905006749,0.724081913091439,0.594343172957293
137,0.6913946934050114,0.5017306632646973,0.3194475283951527,0.384,0.09087529923984282,0.08064240003578778,0.42510627174317883,0.42437512753978135,0.5041172446781036,0.33054858672870696
138,0.6893628545938578,0.5377227439532103,0.5033338618833182,0.456,0.23546776001686526,0.20028912484808717,0.4810384539345812,0.16755670322115646,0.5350543896861281,0.3802552316830078
139,0.6953673909287544,0.5407826429598304,0.4594064008087072,0.392,0.22561805465793705,0.16797031727119846,0.6175931779928181,0.22707514452273236,0.5397915657283686,0.2487744075771332
140,0.6541172590320038,0.495498853758528,0.4387045819802007,0.512,0.20421757768713786,0.15355445054734143,0.6049085041815692,0.20161440692768007,0.49396479627801226,0.4955076798190783
141,0.6619414379885898,0.390014180218042,0.2919556991885916,0.40800000000000003,0.10649490862564061,0.09705319120632996,0.40535849817602476,0.3052447348648125,0.390597295816954,0.4961029544584854
142,0.5570415418600329,0.6340253093429533,0.5378839820441139,0.656,0.3313508055741449,0.2577129727131006,0.575942150259038,0.2279956129656484,0.6328903059835639,0.6239414342713568
143,0.522034431763878,0.0482055407098288,0.0628826991218585,0.176,0.011941837197654721,0.013521635765751366,0.18472039112486183,0.11761897914012609,0.04729073253216695,0.6251431378034488
144,0.5171434739867556,0.08177993672448802,0.06116162389452805,0.184,0.006432744839695997,0.009912460356117259,0.04291537852386207,0.26933348348650943,0.08190944598245439,0.6601222853157102
145,0.5618375133626344,0.4417550158044026,0.42678490437710526,0.37600000000000006,0.24403558707088638,0.16214152152402136,0.7508876402161262,0.15137114990509526,0.43905803365724716,0.39893783019309537
146,0.47822467668501145,0.4188490961313216,0.4194221588875525,0.48800000000000004,0.24587955911143894,0.21573125483260017,0.4519409697995326,0.1322180471852804,0.4157149231479824,0.5612262727497532
147,0.3940513198825214,0.7090958947337287,0.3984135718702381,0.616,0.22963576324667964,0.20520178349911325,0.4341828788950606,0.5428335067664631,0.7138022013955984,0.1623039068943633
148,0.2206641736309788,0.641682867153378,0.6158531516146323,0.9359999999999999,0.49269091380296887,0.6408226823035277,0.1441219385575364,0.15102025777934902,0.6379158920689816,0.8767408544246915
149,0.4128578729287885,0.7413728130273829,0.6997824900976725,0.7999999999999999,0.43455197385954714,0.5753181284144152,0.1325642263424377,0.1598421448313757,0.7374686222797616,0.5387787494186138
150,0.4888192198582265,0.40428207122311866,0.45024541934648254,0.44,0.2917172263610287,0.22106743575673796,0.6023406616691191,0.07667142704741514,0.39936703545812524,0.45705856765373887
151,0.49566456017196525,0.0914036864084527,0.09487709739926577,0.168,0.018204020946236316,0.020630534514295272,0.19996033931850976,0.15620127591712352,0.09060717061635995,0.6106588474370473
152,0.4705615037603684,0.1494093910411143,0.20769244880268178,0.30400000000000005,0.058366290803090984,0.05660148524839582,0.34032737084837195,0.019932470353026144,0.14579235354388365,0.5408046549914584
153,0.6004800375178746,0.5838674702066431,0.38102090489836876,0.49600000000000005,0.09150908506699791,0.10221643475911216,0.24236322278573197,0.41176797809201293,0.5863806345428333,0.5144304506151006
154,0.5497229319511568,0.4555319772970303,0.3058637840357214,0.384,0.09766508059865708,0.09282101111802768,0.36805050719741006,0.3822137162379463,0.457261254205633,0.4542869005769786
155,0.37547916231930356,0.5010950754105449,0.518858010376477,0.48800000000000004,0.3991918330224686,0.33503202066598325,0.4992153865867337,0.11079287607730348,0.49664668801358525,0.4465306318586718
156,0.48410749906130357,0.40946028706094373,0.31934726541973146,0.272,0.13575918209533,0.11599046630539105,0.46833957819080707,0.27988277112883464,0.4096636817540048,0.38792204366217864
157,0.5756224505894368,0.3482945315399457,0.24450679524355634,0.34400000000000003,0.07307955416545599,0.05510350986960399,0.5689380194745999,0.34364999277232866,0.349314757010621,0.43677755864647694
158,0.43027047231311266,0.5585600201712921,0.27056268696909236,0.49600000000000005,0.09439881636913379,0.09434997068475946,0.3265892520208812,0.6547376801845506,0.5632999177710095,0.14728378989901525
159,0.36010372479257213,0.23025714438855424,0.20217874805492586,0.42400000000000004,0.06460592541426016,0.09028125271177659,0.09619180035419328,0.21028358746556486,0.22960717885832688,0.3857928919890894
160,0.34462206358957503,0.5039845042468096,0.5158887583919414,0.384,0.39420898569670915,0.3246065422373303,0.5182619523484422,0.11704361122217266,0.49975432259954267,0.39653578278223833
161,0.33585000699309886,0.5065262336499063,0.4545669292283092,0.696,0.25717717923570815,0.2990868089726341,0.21964116459487848,0.1932960007270339,0.5047376136118644,0.6726751832400532
162,0.4303063363777825,0.581572844062572,0.5398675049391937,0.6,0.365346324110663,0.35229937184539994,0.3694148534295818,0.17185992215138457,0.5788549437110982,0.5534203193559293
163,0.5515975982300031,0.5863101336152096,0.4141872797477658,0.528,0.2236213043738973,0.1755199552591104,0.5610176229975239,0.35297546140181946,0.5879286730674759,0.462734162872664
164,0.4235859114939621,0.49327588565542846,0.33380201827151906,0.5519999999999999,0.18368381692882174,0.17165702430715551,0.3915413329377627,0.37962065289123836,0.49507457005806754,0.23506178974003533
165,0.395532134865788,0.6756953035341221,0.3464187009256107,0.5519999999999999,0.1792382487786613,0.16676068926619364,0.3951630216940166,0.6211732508601091,0.6809639982446328,0.14942492987229627
166,0.4287156373981539,0.5782612099642526,0.35992029743355874,0.464,0.18698069324016478,0.16739830318577256,0.4301295844216132,0.4481476967051553,0.5812284359913594,0.14146638224388602
167,0.26896722828416875,0.22771852755963287,0.14087152990259943,0.30400000000000005,0.04758089479282964,0.052564642499416975,0.24080014509475156,0.4004240324289937,0.22895063582335096,0.2203286623578084
168,0.4609191391428721,0.8747611411338588,0.5049594430267996,0.6719999999999999,0.27732817030064993,0.24002933562362486,0.46607220780985226,0.5296006191430531,0.8802082008209376,0.18679562625065693
169,0.3437902968834633,0.34860718628335263,0.2243397705029016,0.44,0.09192802525836292,0.0920587937473449,0.3246325109548134,0.4005821918822018,0.35022120180113037,0.17955309401607983
170,0.43061912264226254,0.7171145250990398,0.3764816969060026,0.576,0.18448314202337776,0.1577422799750919,0.47280762166219936,0.6040546350409237,0.7224948705003078,0.12154372615656403
171,0.37908183408460017,0.48159967465124465,0.2974883006996902,0.568,0.15035368990453735,0.14855247269090535,0.34204702780699436,0.4454404786121674,0.4841445735521719,0.14486075436054968
172,0.47026139342455486,0.7342325877210348,0.41882908749335823,0.728,0.23628592242792354,0.2612995290220256,0.2563869891544305,0.5314891042032919,0.7389470092354216,0.2707274608675014
173,0.37695199579459826,0.6167266104183516,0.5319722411542921,0.6639999999999999,0.41644440378687175,0.4233991852542472,0.3251026302694989,0.2172497430159982,0.6153156511528319,0.6005704624252479
174,0.4084336762695179,0.5932779466062318,0.6005908522472116,0.696,0.46738588666395486,0.4617243434031323,0.34967061980066383,0.12083690107590983,0.588562720606754,0.6629300090319352
175,0.2916904288626484,0.4515538588899811,0.46623682555788837,0.704,0.34877011546210945,0.3026149904860401,0.4656520592540092,0.1141813469747468,0.4476046598576835,0.7424578870538231
176,0.3340853140768717,0.45869527565922097,0.4762966964860267,0.592,0.3212639099180282,0.3634992589128812,0.2403919320445499,0.11079321304702716,0.45457156395164167,0.5033903254231633
177,0.43127377738522077,0.6478709549692169,0.4116345306027983,0.32,0.27367201083566073,0.19102291908855856,0.6942370240332469,0.43613226237946234,0.6509560630683302,0.31665549820649463
178,0.43342795801244327,0.5781849300953202,0.5501168020310232,0.6,0.32932661067805447,0.28516858122916255,0.46713972677492077,0.15718658768904803,0.5749764968931996,0.50107119268065
179,0.3351116923015761,0.6254683261174784,0.48746937703331616,0.8079999999999999,0.27051647671955653,0.3632844168241042,0.12306264810505918,0.28459752313631204,0.6257868629229727,0.7169913009816881
180,0.3600183838029446,0.6349947632885783,0.34792849355766675,0.872,0.18850513807606137,0.20263916078635627,0.27674964756832565,0.5577377348405372,0.6394362302001714,0.3525127021486173
181,0.3973959826211616,0.5187834009999197,0.24553531310876314,0.512,0.09491745244590682,0.0969160892712155,0.30989719056346987,0.6669920749035909,0.5233259050001079,0.17507184276253412
182,0.4249240481438753,0.8788948286837288,0.47927648625232144,0.728,0.29868258027176814,0.3136942443337659,0.2973958467217551,0.5818233964384805,0.8850388014238812,0.1888796915803091
183,0.3494768288846274,0.693572207964303,0.4920470773650095,0.976,0.33841065374262524,0.30727762676783255,0.42272010806318205,0.35367448323741757,0.6954266827594442,0.31670667464907026
184,0.4385586269384122,0.8514756836522732,0.5805223809068694,0.752,0.4481796354516062,0.3876765734285999,0.4703261742845567,0.38820694625943897,0.8544214466012768,0.36459764178059895
185,0.24541381040666155,0.5708031409860853,0.5838770549529857,0.688,0.4436858675688906,0.5556649657328244,0.16910614699529714,0.1154982021285339,0.566022487303179,0.579228590274636
186,0.311746962166329,0.4314782531741943,0.3344643168153445,0.36800000000000005,0.16578303244462717,0.17092774839621525,0.3084658066364523,0.2844211733243651,0.43175895262287156,0.3491398531437085
187,0.3207835408947012,0.5173457352796555,0.4925812499616353,0.456,0.36875780851895,0.35565826739276213,0.3692926602870683,0.15787855061646638,0.5144623556167527,0.3646350665101467
188,0.49517035198833004,0.32237452711608805,0.19147489418743974,0.336,0.05636656796592104,0.05147136349599557,0.3870667606660656,0.4492474441653702,0.3243080174653892,0.21138514300238614
189,0.480918409373417,0.5834767822726843,0.3082423219226449,0.392,0.11736715966930043,0.10470071685033383,0.42605577709652265,0.582903755853371,0.5878400451155026,0.17537971460342372
190,0.4722195383236868,0.25343267640762657,0.273414737040662,0.28,0.0750705164548379,0.07817386435516735,0.29122793782962264,0.10544961921395735,0.25075656269640734,0.5830243613899693
191,0.47389559595194297,0.4780684625518309,0.3273251911084528,0.504,0.11934217462513566,0.12499196149795203,0.2930509181263937,0.37038726506640085,0.47970385603231225,0.17756043318819564
192,0.4994609623164027,0.2363541637940841,0.16221287731046713,0.16,0.0438300680355906,0.03455798568595388,0.4990302502823736,0.3433105478731151,0.2371654581740163,0.3734679400074631
193,0.4285284234545824,0.35624244830726504,0.2824240007671842,0.44,0.10842728289038553,0.09475162516852628,0.44291476161306687,0.26830305792729026,0.3562710091102611,0.5310049460107427
194,0.4621527782845304,0.501281993773695,0.4177309786017537,0.36000000000000004,0.2735454237345917,0.23223194485169257,0.48456253941647154,0.23920024328208223,0.500642084561081,0.2700326345431717
195,0.499123157897314,0.47192748132548856,0.4469775304313218,0.464,0.27266189363031723,0.23452720022982843,0.4718753214953293,0.16195513846427767,0.46938923605744753,0.45134829902390616
196,0.5123156708199826,0.6317781086078598,0.5102604232966717,0.6,0.29333920600859936,0.2539374735773514,0.4664059710580357,0.2604549362720996,0.6315171479966086,0.5979194664605196
197,0.43732336382589676,0.6620660552574551,0.5991851455328153,0.688,0.46579797360302727,0.36855356648949134,0.5609045349309056,0.1866220670709835,0.6595428320501429,0.5858929131429801
198,0.44963020593178193,0.32080846455676604,0.32069464568832573,0.36800000000000005,0.16757950478439387,0.16103749234355158,0.36646492448911516,0.1379685048151844,0.3184370163661157,0.5026861967356335
199,0.5180929807697662,0.39232508714406755,0.3566375819481216,0.464,0.16170926265864213,0.14592813705017058,0.4210180151315085,0.18740627719741398,0.3907737299465642,0.559890455106303
200,0.4724054242367163,0.640518056724638,0.5440965343576025,0.5519999999999999,0.3891288731503709,0.31722738540014955,0.5283677993616007,0.22711634969197858,0.639345988773426,0.5010604094561294
201,0.5593142449117986,0.6173383852490939,0.42618880156068406,0.52,0.1990362519684129,0.16723975210958916,0.4907084348777011,0.3710440259111437,0.6193310106196135,0.43571763351091164
202,0.5403647888316673,0.7246564364171593,0.4289369992375416,0.5519999999999999,0.22090502852902116,0.19445805222694365,0.44770114276653594,0.49883131606513165,0.7289203330063478,0.5099184744927743
203,0.47389559595194297,0.4780684625518309,0.3273251911084528,0.504,0.11934217462513566,0.12499196149795203,0.2930509181263937,0.37038726506640085,0.47970385603231225,0.17756043318819564
204,0.4285284234545824,0.35624244830726504,0.2824240007671842,0.44,0.10842728289038553,0.09475162516852628,0.44291476161306687,0.26830305792729026,0.3562710091102611,0.5310049460107427
205,0.499123157897314,0.47192748132548856,0.4469775304313218,0.464,0.27266189363031723,0.23452720022982843,0.4718753214953293,0.16195513846427767,0.46938923605744753,0.45134829902390616
206,0.5123156708199826,0.6317781086078598,0.5102604232966717,0.6,0.29333920600859936,0.2539374735773514,0.4664059710580357,0.2604549362720996,0.6315171479966086,0.5979194664605196
207,0.43732336382589676,0.6620660552574551,0.5991851455328153,0.688,0.46579797360302727,0.36855356648949134,0.5609045349309056,0.1866220670709835,0.6595428320501429,0.5858929131429801
208,0.44963020593178193,0.32080846455676604,0.32069464568832573,0.36800000000000005,0.16757950478439387,0.16103749234355158,0.36646492448911516,0.1379685048151844,0.3184370163661157,0.5026861967356335
209,0.5180929807697662,0.39232508714406755,0.3566375819481216,0.464,0.16170926265864213,0.14592813705017058,0.4210180151315085,0.18740627719741398,0.3907737299465642,0.559890455106303
210,0.4724054242367163,0.640518056724638,0.5440965343576025,0.5519999999999999,0.3891288731503709,0.31722738540014955,0.5283677993616007,0.22711634969197858,0.639345988773426,0.5010604094561294
211,0.5593142449117986,0.6173383852490939,0.42618880156068406,0.52,0.1990362519684129,0.16723975210958916,0.4907084348777011,0.3710440259111437,0.6193310106196135,0.43571763351091164
212,0.5403647888316673,0.7246564364171593,0.4289369992375416,0.5519999999999999,0.22090502852902116,0.19445805222694365,0.44770114276653594,0.49883131606513165,0.7289203330063478,0.5099184744927743
213,0.46968218392323136,0.6276182548793795,0.5298062010139274,0.44,0.3749864927119621,0.2860378475043837,0.5982472808824435,0.23127715226319678,0.6265872502305257,0.28840916482354256
214,0.607449235889839,0.25435976426142737,0.10049345534901312,0.19999999999999998,0.01701335594840622,0.014011754093999573,0.3888325987446757,0.6875458077781513,0.25712424983763515,0.14737300196651426
215,0.6255085817717864,0.23444514168524314,0.10364122594199131,0.30400000000000005,0.02167224356520862,0.022231686594671396,0.265650438094288,0.6017861574336127,0.23676517177166362,0.15177909440061166
216,0.49399440811650297,0.4592123518186132,0.2930922616994097,0.512,0.12669878594406103,0.11428941551292811,0.41756589272391165,0.4191148773985657,0.46138672901523015,0.18093988741638584
217,0.5538552899995811,0.2290953777405402,0.12995882447075818,0.312,0.029568376197580026,0.02912527862275589,0.30571493720708376,0.4505464987840324,0.2306548720332552,0.2357153445142881
218,0.5885925535042665,0.36530059719038255,0.33923148385007,0.29600000000000004,0.1656286969530697,0.12013470580993743,0.639369829461649,0.1759685243207606,0.36359218326318277,0.3358224418968381
219,0.5064892473830754,0.7043952024638835,0.6865899729194075,0.624,0.5708930930843027,0.4554550698800155,0.5535875762096893,0.14086778771029185,0.6998469220746217,0.519626060304905
220,0.5833387645880898,0.4368592096205628,0.3420513049288766,0.30400000000000005,0.15411295396035318,0.11291373290068028,0.6264124689854051,0.2780961179125332,0.4370326391483391,0.2809731939527101
221,0.6192742025309127,0.4377216398031445,0.3061987495252202,0.36800000000000005,0.11855943217007961,0.09034972944758526,0.5771958249971934,0.35272338499980727,0.4390288951367529,0.25065122313543664
222,0.5532852271725938,0.31878001875102835,0.20626990044332078,0.36800000000000005,0.07654870973377774,0.06064343736719104,0.5232603469750974,0.39262448783693493,0.32022877077440276,0.1332993862382087
223,0.5431268913816162,0.28910878748052016,0.14947633350982614,0.272,0.028961680859461037,0.029406998891083534,0.28427856285991826,0.5317071017777553,0.29142127185176325,0.18459645778352757
224,0.522269891900072,0.300074550727628,0.16304198201543546,0.29600000000000004,0.04906656711095398,0.04821188231099567,0.32544792414654045,0.5026560569181837,0.3022742291529267,0.10300593794976531
225,0.5146628077134444,0.21925656056261542,0.15303281330485463,0.208,0.0400299402735609,0.032117594359955946,0.47826413980455984,0.3310296163434223,0.21993375350183536,0.4853127723643361
226,0.5806633787042946,0.6599784765020066,0.3245053865665936,0.448,0.13241917909367124,0.12069899646363733,0.40910284559285026,0.6575485708560846,0.6654365017045043,0.1155005912722096
227,0.5588131119983596,0.5236467014772377,0.2417787212313987,0.528,0.09256868588024995,0.08593850448094002,0.3866501218375348,0.6898562213611483,0.5283595661491636,0.16217972489357063
228,0.49099452779614283,0.6881955463652057,0.36959358150942573,0.5519999999999999,0.15334809796251828,0.12330040769909056,0.5294947864192365,0.5807487101193363,0.693173759123186,0.17087853584904839
229,0.6470956336045245,0.44657028746264127,0.23264496020934422,0.35200000000000004,0.08102861922135286,0.06360946582265029,0.5342569581175609,0.5713871823459156,0.45002380903102224,0.10888379233706372
230,0.5735075434257061,0.6998924027076912,0.47398490332179544,0.616,0.2605795060441982,0.22027157718732782,0.48825482280123933,0.3888750259924737,0.7024123666838588,0.33444332592559267
231,0.6274391184679494,0.4722180200464162,0.4047205200479949,0.42400000000000004,0.16750286928022967,0.13711305296368537,0.5134822732108522,0.22164316571758513,0.47122899479176195,0.38110806341113623
232,0.6195636942351318,0.353932005560731,0.297552047578541,0.392,0.07918378465099783,0.07473732381927901,0.36948202781464845,0.23323473857768529,0.35339075637947004,0.46198690760385097
233,0.5188478976058147,0.41699001233582533,0.42782478514610867,0.448,0.2633942932454589,0.22379076697940367,0.4833954162887131,0.119083540884945,0.41345753008459596,0.46604338873666507
234,0.5443109485188652,0.6429613418738269,0.5392564311649055,0.48000000000000004,0.37212322646413987,0.29798567463632025,0.5464309564598488,0.2354272430278037,0.6420225265176177,0.3336639455765401
235,0.5127225517069517,0.6934944077214532,0.538928483974863,0.49600000000000005,0.3527761535789921,0.23972599354770208,0.7305638140591331,0.28752211822053964,0.6938976386330823,0.46315496732377137
236,0.5916819539724757,0.5207294302487737,0.38559024616808524,0.47200000000000003,0.172464659979622,0.13613991922757282,0.5505015057895926,0.31773331129811166,0.5216382602377745,0.23798582881444486
237,0.5773574258302842,0.7289764132596834,0.38003750046554013,0.52,0.17490180368856612,0.13899957434914742,0.5438932602621911,0.6116419054044431,0.7345037671935004,0.13611788563639826
238,0.5050299037649509,0.5255393686721338,0.3025814896078656,0.41600000000000004,0.141234162745231,0.11262579020548806,0.5359246331632739,0.5045465719368081,0.5288791903734077,0.1347067124154177
239,0.5007362332136956,0.47394392995167856,0.3124847023651028,0.456,0.1438541012924058,0.1266433783297864,0.44167072334537805,0.3970049291841691,0.4759092686821619,0.12464304938160123
240,0.5319768348556512,0.48640313417229086,0.2340834417604442,0.36800000000000005,0.10044002289311056,0.09427093690877038,0.37904399269241984,0.6452129752908409,0.49059003480708596,0.08182392359387256
241,0.5675101581342418,0.39728354906930585,0.2545301918406476,0.35200000000000004,0.09136454019064001,0.08456842790175967,0.38889105504108834,0.4096659166605555,0.3991447699693922,0.25808275556786725
242,0.4792654297502509,0.31970440205373596,0.20470541307439044,0.30400000000000005,0.065747154101393,0.05826135775520439,0.4171013794688777,0.3995387341197205,0.3212181060651866,0.17809358710601542
243,0.31897964521646005,0.7191475653174508,0.5614243926401298,0.968,0.46442483132998547,0.3857585910422366,0.510680962780417,0.28484529965837313,0.7194893166538552,0.46985139736628667
244,0.31118777711300927,0.7918887030074813,0.730505717070543,0.976,0.6825888154700018,0.7299713124574758,0.2854596048364558,0.1737595481345534,0.7883627779474459,0.6622527792864225
245,0.38252971926046764,0.7752087736168694,0.7137881025576226,0.872,0.5535270212547535,0.6095978708092177,0.2621360274988125,0.17496450470981595,0.7718031716055835,0.793951733545661
246,0.465356368667185,1.0,0.7950992793219153,0.848,0.775585752689983,0.6490116455683563,0.5058435924491147,0.2736320916471159,0.9999999999999998,0.7327681002721621
247,0.4383794143258427,0.7074408069847465,0.6938115931173895,0.752,0.510336694901269,0.5748580881970599,0.24484133366561456,0.1371994565502005,0.7027068212368734,0.48114053910347376
248,0.26742012196025067,0.43507792007581103,0.5463233469280087,0.592,0.30140292028512694,0.4025462099583053,0.1266414855823077,0.015437667778613662,0.4269294748122727,0.5716969766504931
249,0.24351504318856942,0.5898440032228525,0.7157591590251503,0.768,0.6363305961582675,0.5834002039537209,0.4169657469161052,0.02416167304240524,0.579916208360584,0.6377568487270785
250,0.2558339057516067,0.5557214183264918,0.5856322568096769,0.5599999999999999,0.5093833821047408,0.47778903389225236,0.3953699126660142,0.09935812469673844,0.550357544245548,0.49057879022558004
251,0.40889600037334917,0.7078904248445124,0.59874836036465,0.688,0.4129522573814238,0.41186137390831035,0.3411101344551759,0.22992732796007043,0.7066837343400449,0.477385704091456
252,0.3048315900017621,0.6204058692518551,0.6621577278521815,0.64,0.5824463495214723,0.560787181294048,0.37266033106913343,0.09056412126177771,0.614057543877185,0.4931439224606614
253,0.3141513045427299,0.5753844382377106,0.6105509557499215,0.776,0.5411373859790637,0.4958188149198722,0.41691283217169506,0.0949802637570637,0.5696517226798045,0.6818343812014562
254,0.2684516519832637,0.6731951305951736,0.4153904977737346,0.9199999999999999,0.25721885725448385,0.2751232883853655,0.2823256520913845,0.46145561169672844,0.676731349500017,0.3258583105506709
255,0.326027234181428,0.5988374347379982,0.40667683707325947,0.632,0.23163744128038952,0.23059953797133062,0.33956670490814067,0.38285122075338773,0.6009713630703788,0.12940460838396967
256,0.428102539136631,0.8145203120907033,0.5141451191467843,0.832,0.31719383326725714,0.30256855632831664,0.3780830951015698,0.44975166674006495,0.8184762037611762,0.2418637861332445
257,0.36004578666918785,0.8002665468660471,0.7003267495807084,0.824,0.555375269747839,0.681115968114498,0.1836959774707364,0.20739374243158726,0.7980806523923509,0.7621283945345009
258,0.41434697432845125,0.6989712201269657,0.6898881991804281,0.8079999999999999,0.5428445056061909,0.5855835846193477,0.27816104897255167,0.13351960758762804,0.6941191733920073,0.6500030501409981
259,0.5276277269861916,0.7369229412467526,0.4657998121762629,0.72,0.3033908148230454,0.2777248842452066,0.4145304996932567,0.44527370638620567,0.7404926770033937,0.22270519968705393
260,0.3211920692850895,0.6274430017280501,0.5856253186187983,0.864,0.45980712481713654,0.5145002734823242,0.2496411415199814,0.16800447958631803,0.6243918711487266,0.7917407493795494
261,0.36127759489998323,0.5399595108030861,0.4741480278321111,0.76,0.2850244108433912,0.27469525421806035,0.36846376482192766,0.20634956990017284,0.5384281500439367,0.8228837060944539
262,0.4224807682677637,0.8684586593549871,0.8078641284550808,0.76,0.5662906601158079,0.48763363826568906,0.4760033351190367,0.167826793736928,0.8643323060806443,0.6433170290048968
263,0.7186636614170699,0.7546593809268032,0.6327511121380291,0.624,0.3917618899520277,0.31113052122125506,0.5555340358659271,0.23572908199611342,0.753561996225186,0.579909515513141
264,0.44419225242167426,0.6017916506027366,0.6363477247734534,0.728,0.5121961167752653,0.4462750987535956,0.4640613140902812,0.09611759069346382,0.595884268395079,0.7597652827695094
265,0.5442270418359084,0.7860679035278233,0.7606582596242829,0.576,0.6188139194980505,0.5856315494328709,0.38809294414423035,0.14414079763707233,0.7812031306408903,0.48752460289971045
266,0.5402750971758418,0.9247146434057348,0.828977239809163,0.72,0.681191772587075,0.6440097604140769,0.3892995293986381,0.19117014340879523,0.9214752113443128,0.6708155736031508
267,0.3387950520933033,0.6201344934829937,0.6487352884780276,0.64,0.5693706253975793,0.6347672419990416,0.25284270135410436,0.10162412389071174,0.6143393648807521,0.6709225969448642
268,0.557504886526026,0.8431752986125287,0.3993710490547119,0.728,0.19240115524515802,0.17910344099936493,0.3954697023859989,0.7158036287645257,0.8504107720631066,0.23805752268768265
269,0.3192444264521007,0.9174801412120012,0.8266720157904227,0.864,0.6518152949397222,0.7486654263764744,0.23074026284678584,0.18792573847743865,0.9141145251766176,0.7347691721704972
270,0.19199760786240538,0.73133641747011,0.5590993694488618,0.9359999999999999,0.5300839626199015,0.57983968150825,0.2672662399009884,0.29989036017514037,0.7320620134654487,0.2650930682036979
271,0.273528289822616,0.6971186085277273,0.583107182474748,0.848,0.4646329413535218,0.5210027154084205,0.24806684694073022,0.23738077111407663,0.696156903900225,0.7186637364708985
272,0.3172056448544961,0.7897034134316226,0.6964936946607725,0.776,0.6325325907930986,0.6441434238520786,0.3250050546997091,0.2023544607313159,0.7873535208625896,0.6862089342541308
273,0.23245382182849694,0.7078954613675583,0.5873472056691716,0.72,0.47692640252367413,0.5332586934562779,0.25028272332456214,0.2426680730719173,0.7070771206693616,0.6150720542674605
274,0.5081796242681303,0.9726697984309908,0.7792551267627289,0.856,0.6369612117369968,0.6720035998695698,0.2961377325388922,0.2679258384265957,0.9724724070519859,0.8178562888126485
275,0.21115988086607984,0.8382939950631132,0.5772037799540131,0.8079999999999999,0.5192574666607611,0.48525450535125125,0.39877203703273456,0.3802386210993083,0.8410360534840633,0.2917820398166412
276,0.30361984397076214,0.805217563573872,0.6130319052490596,0.968,0.5705396356196005,0.509383292961914,0.4412893838626475,0.3037840841397266,0.8060945736031762,0.29242233808391016
277,0.3899709385097244,0.8294682346870796,0.6926740172944358,0.744,0.5668173116321665,0.6144712463893937,0.2743905909960571,0.2386346830881123,0.828360423796436,0.5033452975356463
278,0.47400465171501416,0.2734497784120139,0.294028961370894,0.232,0.13806141098075536,0.13335502747705544,0.35985621644952903,0.1047933723551786,0.2705971192092164,0.4098772801111692
279,0.6212750690889614,0.5466865112079077,0.38395479749821615,0.48800000000000004,0.20006806663823276,0.15378749422964588,0.5809853801528022,0.35555762200178853,0.548263926040307,0.4891368342577038
280,0.5500250881950252,0.5416990710232896,0.45901130303708737,0.48800000000000004,0.22668943971797947,0.1980966043880523,0.4548470327823455,0.22868913100831645,0.5407467643741165,0.3412439978556085
281,0.546638390998745,0.6950889684749605,0.7061871506356454,0.712,0.5200892994815359,0.3915716795912317,0.6156735424670166,0.11680410433269495,0.6894590323896583,0.5341919031660636
282,0.32338154624799975,0.8292532332462568,0.7698452515206344,0.904,0.6164142294923702,0.8429193284474767,0.11239253944076477,0.16938301934130784,0.8253726880975089,0.6686629874032347
283,0.46992596592208324,0.7162599226169521,0.6384246785589575,0.736,0.45210705408046653,0.402596560092647,0.44261411614878154,0.19586533165695175,0.7138864518736571,0.6277457679595226
284,0.49075052625812166,0.40709469705272405,0.3855378477008936,0.536,0.20942862970756781,0.20689166480678986,0.34523746307637293,0.16369671981578693,0.40490832840319113,0.6568070574256033
285,0.3598565641328225,0.49235146718226885,0.4954499413061003,0.744,0.3758732533425521,0.3047061246353645,0.5338273412107362,0.12691994581334765,0.48856466454473435,0.7554263137758789
286,0.4868432375244719,0.6670449775644541,0.6384871862025434,0.656,0.41625701066556114,0.45604355145238373,0.26547737598340004,0.15233153557800339,0.6631974792098431,0.5847396505501358
287,0.5832950495505823,0.47890479234449623,0.4322189219600805,0.30400000000000005,0.23059852799797517,0.17401930416141195,0.6032477312908378,0.1902019798100445,0.47712446991279334,0.2575515412301727
288,0.5113424660721407,0.5493867053664022,0.500932804758429,0.536,0.2502977877234004,0.21382686543852894,0.4775552053541,0.18314528715101142,0.5471569534827365,0.5035357578061924
289,0.5589019461142738,0.15331521385030225,0.10886321913400161,0.11199999999999999,0.02186298628297402,0.02353241056568314,0.23646460436870864,0.3090687290096492,0.15373712933385303,0.4333338384244718
290,0.467859371375127,0.3607190723379021,0.2919974052970346,0.29600000000000004,0.13478837909023486,0.1240093341092263,0.40119427527773044,0.25579822603352076,0.3605484993591683,0.44408825741139124
291,0.4746893514273277,0.25266173165395467,0.17589374203099223,0.224,0.05091465908510149,0.0526166923442604,0.2891608614580471,0.3377743375494522,0.25345237728525066,0.4472514018790391
292,0.44557732201624345,0.10667438124444112,0.06304121181284071,0.096,0.009875512798482235,0.012596647853884053,0.1229277082365291,0.3646233338678515,0.10735793532544857,0.6026754020638508
293,0.4982263425595522,0.08866317685118802,0.042300563426623264,0.07999999999999999,0.00578211428706661,0.006104761088473542,0.17643397437024533,0.41776224162682385,0.08952577326522601,0.5520077282811212
294,0.3854245145635492,0.02726165423311494,0.021397437159115434,0.04,0.002271149570334772,0.0019505625249326124,0.15774208902951636,0.23965848862925,0.027271469392282283,0.6983989614728409
295,0.5297867850983168,0.2300615948491153,0.1796345445034418,0.208,0.057178942150431004,0.05655823602412319,0.3245649060777803,0.27174993459753605,0.23017164095567044,0.4149908610924973
296,0.6107138943916951,0.4487085448396956,0.3835272615441813,0.384,0.17763743510367147,0.13534387786235594,0.5879304290891179,0.22334135742812722,0.44780470601421407,0.44424173582308957
297,0.6133460701397496,0.15901845445470045,0.15894722200595307,0.096,0.04113567074208411,0.034242312474380046,0.4491374323374725,0.15317469978826725,0.1578401238640852,0.6622916964868838
298,0.7167166376548021,0.32880625733871927,0.23651587970874127,0.24800000000000003,0.07093376285485567,0.058828428794762626,0.47784196543307866,0.3264602501144366,0.32959660095066917,0.45649893530350505
299,0.5175086855655505,0.41517145366858776,0.3763232672688113,0.392,0.19684447217148174,0.16371424629881887,0.5005308450481929,0.188590153877631,0.413568172852811,0.4575891110535526
300,0.44912079568887175,0.16917516200731855,0.0949453826511797,0.208,0.008639610835865117,0.011883648299683688,0.0883202300556537,0.427660481441805,0.1703722313826186,0.6975474572208926
301,0.470813737171068,0.5357646460631295,0.5512215610702926,0.576,0.4048215779942172,0.3680020402430713,0.4227708668775253,0.1132027091355634,0.5311491515215707,0.6626138575464664
302,0.3599344583500875,0.35295540771555645,0.25888461691250875,0.256,0.1082521461489148,0.07826175845780155,0.6291594155619307,0.3160933608160954,0.3536497358514127,0.41692195990814007
303,0.4936723223867655,0.15583462027107162,0.1250645560082465,0.184,0.0277433098654107,0.02889987358006098,0.2657599264067383,0.25320431388824005,0.15579812453723468,0.5977932957706447
304,0.4836478603079891,0.19786720630082164,0.17202301290355443,0.208,0.05828343629785118,0.04573740284498439,0.5196227643147855,0.21574872212234508,0.19736628590102756,0.5320874952037936
305,0.5425119876766412,0.11218949687309424,0.09189163948949665,0.19999999999999998,0.013495225870727776,0.018300890471897764,0.10074489318445057,0.24159620728794007,0.11210022477420103,0.6823447741470275
306,0.5253885901535572,0.09921746498151263,0.09684444657211518,0.176,0.015067497686647594,0.019753748238725725,0.11866423520660685,0.17600957294461017,0.09858357510627672,0.6266945248074096
307,0.5841195983033417,0.15460940134794446,0.10724521675166772,0.184,0.012930018268493866,0.018095867984461396,0.08562655644868133,0.32027414530668796,0.15511372370590049,0.6012780948080789
308,0.5398735221404435,0.08600636220990535,0.06406374431106447,0.128,0.008007731339560285,0.010397109461255303,0.11042468524373306,0.2719308404194677,0.08615081761112009,0.6135028731435548
309,0.5560987194604788,0.09689172422689535,0.06256164090575352,0.128,0.006602459964980141,0.011056984551286082,0.013397060479692913,0.32597828862092637,0.09735655564015841,0.6228472840438286
310,0.628514942967295,0.046470807837860756,0.06210492643137046,0.16,0.00609203274479818,0.009533074260228053,0.03757668528855829,0.11345381396909704,0.04552913771355743,0.5558232106168056
311,0.44062939921813393,0.2179453062375689,0.1280963427086163,0.224,0.024944787956397957,0.03377620828509445,0.10838911256621109,0.4257164442710568,0.21931039996047186,0.5898150538971123
312,0.45304348108889825,0.3040429823672297,0.229690156102284,0.19999999999999998,0.08672735306929184,0.07219567100321,0.48134949894173207,0.29499240896542,0.3044337496740693,0.49235930569126307
313,0.45873288003086155,0.3023790246874253,0.28907699562625294,0.36800000000000005,0.12879692535254203,0.13796763650406643,0.2765581691577962,0.16255907079551712,0.3006552310662555,0.564301453008022
314,0.44907411792861984,0.4289792736552689,0.41821274926710217,0.37600000000000006,0.25960816366991285,0.19304563054345922,0.6213312175327079,0.14668115129547232,0.42621488931063267,0.46358338290348755
315,0.3941555557502928,0.10356206623133704,0.120946451001071,0.208,0.025658028187443144,0.02693424487776337,0.2579484832561967,0.10789454144970456,0.10211876781483872,0.7091868444840916
316,0.353024990057201,0.3295578945192318,0.3486432703110699,0.232,0.2232242676598707,0.19958440492359467,0.4333696613984427,0.10800528259543862,0.3263449337437209,0.4282900469873864
317,0.22962164700464693,0.29409711437673247,0.27447238024906345,0.216,0.07968113635504905,0.0840631121831506,0.28241104371682246,0.17573101198357755,0.29267159044590413,0.3623301589805237
318,0.6452658891872111,0.1650444654762365,0.07062786741841172,0.13599999999999998,0.008731967659615167,0.010871907295556645,0.1301096028694999,0.5563114786312602,0.16677667182834366,0.5617705286151218
319,0.7024906387665176,0.1331209775793384,0.09209428960916967,0.16,0.012490748071423816,0.015446256862444399,0.14319232531043935,0.3149739736235063,0.1335641273338028,0.4964384845716594
320,0.7631232935986717,0.13483790040602742,0.10216187239062548,0.192,0.010276640682597623,0.014920427435663564,0.06758118006629821,0.2762861593109044,0.13500517802072698,0.6100838228400426
321,0.6519013877880134,0.1274616854246861,0.09658082920857843,0.144,0.009764580330076317,0.0155267404877889,0.03013483740579448,0.2749622146844387,0.12761967485301992,0.5427996460614695
322,0.2587508539420723,0.727643380166949,0.7282113510947341,0.6719999999999999,0.7397556469485769,0.6841499351374567,0.4094629661693817,0.1248473669568908,0.7221862449590052,0.6241633519625855
323,0.4110853796623132,0.29252645169304237,0.25631597598799283,0.216,0.08517443934678283,0.05536104578114719,0.7342530446851776,0.20999273745273628,0.2917158471202952,0.5233805079960863
324,0.42415606943332806,0.14754455169825273,0.08967159556250644,0.128,0.01985123569131101,0.021009973566500355,0.2428106827687172,0.37820186006662315,0.1484029490094067,0.3995464894435832
325,0.3768341877423539,0.5497392340941438,0.4891245189811223,0.48800000000000004,0.30653873767198175,0.23228717209596403,0.603063754927839,0.19803047556314068,0.5479476816128476,0.5549166489194004
326,0.3996546477980153,0.0026480794177326378,0.01087563820719431,0.016,0.0014948691864260315,0.0009160736837852852,0.16228472091222745,0.16190869859471568,0.0023292331601700023,0.6774720865195336
327,0.4789886002053555,0.3686703187653033,0.3301185807536139,0.13599999999999998,0.14807655820206675,0.09167424467732185,0.8221473595897848,0.19649735415343295,0.367394763709223,0.22121764541730093
328,0.28668771888023026,0.48772132898055665,0.5051523445960812,0.44,0.2902930035007372,0.42007534046862816,0.07795155892423944,0.1110891295763301,0.48338658685863145,0.4340733986518198
329,0.287557804933933,0.4381206853264431,0.45315977622077996,0.392,0.31460564274741126,0.3037388106584448,0.36754870971611453,0.11373446835967804,0.43425613272288954,0.46736490724202595
330,0.23898176277905925,0.3478767267582388,0.4000177286029264,0.43200000000000005,0.1988639515630001,0.28989096740803694,0.07350737363708304,0.06467398332348573,0.3431056297259103,0.41790041427291136
331,0.29481732504208435,0.39164349427915224,0.4415501573004533,0.328,0.3153676475399693,0.2949357600747359,0.39551744525408894,0.07123201337292084,0.38664884268177846,0.38601664967514704
332,0.40613733552910014,0.601729189667227,0.43671733665240486,0.456,0.22845331463224056,0.22079914049096383,0.36444186482075425,0.3339925302850739,0.6030404595269387,0.47814879037927704
333,0.485294124250815,0.6690114985022363,0.6408439068524845,0.6639999999999999,0.47040224776564915,0.5233305423510566,0.25405395409569675,0.15177438147780464,0.6651307856525895,0.47565486941727175
334,0.4443964077858714,0.6753354625364795,0.6165508290150392,0.512,0.4994928189628075,0.4049424311440282,0.5359605209233285,0.18106705820865854,0.6725642384682292,0.444320739151141
335,0.485294124250815,0.6690114985022363,0.6408439068524845,0.6639999999999999,0.47040224776564915,0.5233305423510566,0.25405395409569675,0.15177438147780464,0.6651307856525895,0.47565486941727175
336,0.4443964077858714,0.6753354625364795,0.6165508290150392,0.512,0.4994928189628075,0.4049424311440282,0.5359605209233285,0.18106705820865854,0.6725642384682292,0.444320739151141
337,0.48989145967455927,0.259030516015447,0.23874761323936522,0.208,0.09032454846991579,0.05949662256470648,0.7227264334315242,0.18393445314881307,0.257887691654763,0.4427586185609055
338,0.3863096941877934,0.48876150807491925,0.486804424569264,0.736,0.3146878614881296,0.33508567861733396,0.2867172120581253,0.1328083956354731,0.4852037921224347,0.6648794699292344
339,0.27943933118922015,0.48832507310491957,0.5598373576760179,0.40800000000000003,0.40969094656388805,0.42277927812633087,0.3128199035698468,0.0567963222923229,0.48163236714385005,0.9739161748385083
340,0.7023136824572686,0.3563663694275353,0.2619833894157612,0.30400000000000005,0.08274837330190077,0.06047475933757857,0.6062474847140971,0.31490320663862303,0.3570491760166974,0.3972523376452849
341,0.6729912473089971,0.5164339702150343,0.38044987567922217,0.384,0.1520146169667383,0.11760761945981955,0.5684109169822473,0.320852387941965,0.5173911607084677,0.3279733128960679
342,0.6100178475451289,0.15567884051221761,0.16191356783848365,0.184,0.04833568010054702,0.03870126675087675,0.49142349575407596,0.13754409864443962,0.15429504112331371,0.4187607413652542
343,0.5547227869486812,0.26250656900472413,0.2628577098405225,0.32,0.034279954151725106,0.039069223258220244,0.21367840564960283,0.14133221456728384,0.26055540311224906,0.532146347963576
344,0.5081815357493696,0.4406499599746181,0.34324125465466504,0.456,0.1533326827855075,0.15046521570060542,0.34790619142771595,0.28150344533823657,0.44088231017979285,0.5385620401626221
345,0.5607943629712943,0.5535442031469885,0.5396229029485173,0.312,0.29644356744666633,0.37804129936993475,0.15644328218985126,0.14341437957573477,0.5499724145290876,0.2517099361562261
346,0.5389558286306154,0.41826003253487165,0.43575933432322456,0.49600000000000005,0.23345177471089523,0.2144391752068628,0.4092567019189687,0.11079209540805812,0.41444590302983964,0.4123868911066455
347,0.6709041466554401,0.6889030963776753,0.6167248818133995,0.5519999999999999,0.42291067029881174,0.31878889558268825,0.6125045035024916,0.19327085025839974,0.6865236354237633,0.3779132611035162
348,0.7075384164911162,0.44703270986136256,0.31778622353941505,0.32,0.10515609860716509,0.09266062244741162,0.43476080109658455,0.3422537924144995,0.4482151296238336,0.32345843143465647
349,0.6573061507280981,0.4331015208490532,0.3762761595249486,0.37600000000000006,0.18938506164569446,0.12743725805809683,0.7289777366450592,0.21351225139829633,0.43201568372759547,0.29291048192113733
350,0.618914760559773,0.4264967086584065,0.3725801182766708,0.42400000000000004,0.17189803339667348,0.1275235266965128,0.6157112985813968,0.21025906800434524,0.42535510290795553,0.4247377086908837
351,0.5167208601418244,0.34313714923017014,0.2665372871430917,0.34400000000000003,0.10619985727310778,0.09077859817172809,0.46254671820670024,0.2802389000541897,0.34334352565621223,0.45321005127236735
352,0.5445141474621485,0.4312550171948808,0.4401160775922477,0.4,0.2640270890574655,0.21030320902324326,0.548164183152958,0.121341245737142,0.4276949800451244,0.34725567599379115
353,0.5515272419648035,0.30538051434380253,0.33258121799845475,0.44,0.15054607537355516,0.1464207287314439,0.3551240462745352,0.0953653675379722,0.30201038297795385,0.4121423801303795
354,0.6702455172618437,0.557773855800355,0.5821104479388245,0.504,0.3704517812673169,0.294276177346855,0.5547672829016792,0.10465120363807257,0.5526269217728462,0.416875756795524
355,0.521875863997176,0.46567846072569985,0.3943380158029099,0.504,0.22536707639773612,0.20104436147064306,0.4355591686439778,0.22907768436298614,0.46486881703978966,0.48564924071358073
356,0.5651785169571509,0.5731901880628916,0.5469436319317249,0.576,0.2934317328655713,0.22464296199193443,0.5913913320675452,0.15556768756898254,0.5699493339590284,0.5122177928206577
357,0.6782686044915255,0.26593226893389943,0.18593681993600925,0.24000000000000002,0.04606884708823714,0.044785368243744704,0.33155021642906257,0.33711317436330057,0.2667390192928463,0.4112083583859668
358,0.6367986874932318,0.6310603017592015,0.4269930039744174,0.52,0.17137726448214352,0.16341805853424085,0.3733109421909744,0.3866671529717012,0.6333452181664223,0.4654686018654862
359,0.582199296213164,0.5600333020888943,0.46317059155509155,0.5439999999999999,0.2297450877535888,0.2035254642400073,0.4422247360856775,0.24429320372278296,0.5594374313490873,0.44757592330986573
360,0.6694207274097533,0.5150175346351381,0.44596459951623557,0.464,0.2293889503152431,0.1597288648409795,0.6934920628634091,0.21512592386333873,0.5137785636337988,0.4517480733356781
361,0.7171050092129002,0.5845966597479181,0.4096211027489845,0.384,0.18971214275798304,0.14830568551194445,0.5623546789499863,0.35879884559999264,0.5863089409795441,0.3458361488529869
362,0.7999594221845313,0.3176980807437977,0.31247618604581573,0.32,0.11105192679284503,0.08732264735686511,0.543548324014582,0.1466991127601679,0.31555003827131006,0.35606952177798973
363,0.7898545172668919,0.1757633794975367,0.1321730413574036,0.168,0.022486330326495996,0.019336573784422707,0.38410056839628304,0.2858841275504074,0.1760122680269553,0.46631196744455106
364,0.7004250570663834,0.5577162009480104,0.42419614775099557,0.35200000000000004,0.21766904558201974,0.17984661727208887,0.5084755874042346,0.30011764530638085,0.558334396164105,0.34347102882357045
365,0.7104760179329618,0.3879576727247349,0.30760104744583167,0.30400000000000005,0.11527320617307388,0.10714171862738094,0.38981615552086213,0.26900962359922986,0.38798682780699006,0.37643943020001763
366,0.4759319367085396,0.35891858365136375,0.22155916964017236,0.056,0.06222956281606605,0.07930540593609757,0.15101513382408094,0.4265677511318412,0.36080651537305986,0.77174206615906
367,0.6624958390854502,0.1785228246725625,0.07187549986606544,0.144,0.008388626275511877,0.008924493908511136,0.19620389690863071,0.6015555921957125,0.18049002160140043,0.4420687940912592
368,0.683030104926153,0.5009779740013162,0.47105152152023166,0.04,0.23028492624750893,0.17203591993347858,0.614202667940283,0.16318976759187032,0.4983403084696887,0.21567312088680302
369,0.6576320677819228,0.16911008789170975,0.23710504122231152,0.088,0.07622291432639726,0.05519746572123365,0.6115365235211794,0.008100847477158779,0.1648600611283772,0.6334934633992305
370,0.5030395729959739,0.40368224510410944,0.37792166743529176,0.43200000000000005,0.19426714523219235,0.18366160664864475,0.3820250911071328,0.17043919596277912,0.40168248251297334,0.4710445073952805
371,0.686133891742802,0.564808681171634,0.49288523197548983,0.456,0.1894521472672929,0.17594537464276902,0.39737061863179945,0.21011369941669034,0.5633167517558716,0.3732679425512591
372,0.3759297643127125,0.5409844302900157,0.48338963334665996,0.5519999999999999,0.3356727099953455,0.2891335279250874,0.4723840752422417,0.19557108333430906,0.5391495573753449,0.5373982800246984
373,0.5346037433691998,0.4552482376296242,0.25114260635115226,0.07999999999999999,0.1166755111730367,0.13034824747784585,0.24448963262571521,0.5264197658315766,0.4584163275464471,0.5097394554023157
374,0.5290689732267094,0.38755010683167535,0.45474148719286767,0.144,0.27581909152768,0.2823443629527378,0.3176748713239873,0.05041877512465365,0.3817615551095301,0.6111126065869226
375,0.685009973581444,0.5247212767633066,0.328514631144918,0.336,0.13425374349937924,0.100667932727158,0.5977533627760809,0.43901726283036324,0.5273656730940909,0.33971712717580416
376,0.6449662465570895,0.35392877859291205,0.3344759704032167,0.34400000000000003,0.13330378383523453,0.10598632906437876,0.5375086332336916,0.1666384379626611,0.35205693618287665,0.48851783523467907
377,0.7226204734395808,0.6762426607022652,0.5909925848121318,0.568,0.3661949463562448,0.26127779867882617,0.6731647740497015,0.20866097776893633,0.6744237017045928,0.40469417143422315
378,0.6819445655921436,0.4761434014013175,0.2847934181484785,0.36000000000000004,0.09246283525368504,0.07633185281752633,0.4910701923870353,0.46878683743679717,0.4789035313141964,0.378815178925501
379,0.6098542519486846,0.4302438955649245,0.356073235018785,0.4,0.18653947235617654,0.1367326425435019,0.6307311860882168,0.24312531781676372,0.4297782707153417,0.45010060843521293
380,0.6113928271905759,0.274331138950367,0.2302983021153262,0.224,0.069107908788579,0.055658695664572135,0.5036126178236568,0.23366874915909053,0.273922681601255,0.3790199115952382
381,0.2743709202445258,0.6745363434078466,0.6924025463150729,0.776,0.6817059728780861,0.503580265708252,0.6390632816541915,0.11117509255064828,0.6687789558764676,0.5370936042373181
382,0.3301403995504185,0.7309665075753877,0.7155671504331604,0.728,0.591779767419125,0.5570970890743501,0.392668687795133,0.13792623033205365,0.7261243437541991,0.5242846423227958
383,0.5603527225080648,0.8325060424436125,0.6430176077847756,0.728,0.4354650601644286,0.4129052327459932,0.385029377505149,0.29334417143944636,0.8331135817313253,0.5735360380496722
384,0.3827809125282414,0.6208980286647869,0.5960295246902345,0.64,0.46495479526926436,0.418059131936712,0.4336899864455753,0.15120996680064125,0.6172485792240247,0.5678165554631464
385,0.2949063158452109,0.7866805343272916,0.8907357823718001,0.904,0.9896276790671592,0.9531166823520375,0.37373073183471905,0.05454283000044535,0.7763558239388688,0.7894139118690304
386,0.30669436981704623,0.8376554405676768,0.7195545042255594,0.7999999999999999,0.6710268928206407,0.7422010624667609,0.2591632490744501,0.21956691303417109,0.835842694112431,0.75085702489771
387,0.23548950700700588,0.6994236931872765,0.6278702524677586,0.824,0.59796396196442,0.583574025152139,0.36094629033311965,0.19144110824232474,0.6969442990057976,0.7890017947084905
388,0.24176129017049497,0.6651359053351633,0.6337970278465315,0.864,0.551840784398043,0.6304686055157952,0.2344272686748765,0.1549841925458596,0.6614062472377747,0.7785582393002018
389,0.41226945810826676,0.6814209767822899,0.6942527441625654,0.648,0.5878540774489044,0.6010126631559382,0.3215505633259974,0.11534481482334669,0.675818752617567,0.5905351165194845
390,0.3382691525339768,0.7445865251464354,0.7520348167619323,0.856,0.6673573419986251,0.7559960786994041,0.24104924154993335,0.11932562424124027,0.7387291144234122,0.7625973478375672
391,0.5620613212749134,0.3262052712285619,0.18345996024744843,0.28,0.055507642246586185,0.041384849383386595,0.5647411176481307,0.4869547508143365,0.3284293503799128,0.14047296989028552
392,0.5825583874140604,0.25725998756402046,0.13579500084545415,0.24800000000000003,0.03020071121346014,0.025589896856523863,0.4159522566100282,0.5054434197882669,0.25926192879872867,0.13103141274220437
393,0.26482966381481476,0.7743143698020561,0.5313369879332152,0.9279999999999999,0.41648399486529764,0.4199045751125775,0.33206700181150195,0.38127911189675334,0.7769034172199912,0.28305294600944086
394,0.2529506400585618,0.7363727924030132,0.748820650946665,0.9279999999999999,0.7788352133123091,0.728914093563583,0.39877938743480723,0.11546970609847762,0.7303722544659863,0.9181760831999892
395,0.6729923565702659,0.4902478194339398,0.2514209854995363,0.384,0.08062634332494682,0.06345605004492214,0.531596574567988,0.5928246843125329,0.4941159184441627,0.1453569641229307
396,0.6509238784663577,0.4189368628196556,0.24305946629526765,0.43200000000000005,0.07980287466442175,0.07341996844221649,0.39090798731203313,0.4838572331491837,0.4215736202911694,0.12539290939311018
397,0.6221448373250736,0.2883328242747807,0.1945716921291239,0.392,0.05385109259274431,0.04997688386132165,0.37252463326400564,0.3617699782943824,0.2894171572639118,0.19235546690452676
398,0.6292895455794246,0.39914789082019553,0.16055744100727526,0.28,0.03644962856845897,0.03502691910182984,0.33176471732831536,0.766151693902622,0.4032871237594755,0.15998537283087766
399,0.6123302253821018,0.3724255631843819,0.21104398124416834,0.36000000000000004,0.07229869926970506,0.057961476436469934,0.5097501601665775,0.4924076502880952,0.3749095540849688,0.13011482690408688
400,0.558930836307793,0.24829826510891115,0.11324678154991384,0.336,0.02164243931766382,0.023851895684166048,0.2219138480446755,0.5919633349324682,0.2506648856022693,0.21943307750731206
401,0.5517805165903952,0.28975806753518907,0.22489612498678718,0.36000000000000004,0.07344332648953794,0.072526400749344,0.3315537276211519,0.27838444969898346,0.2899388990099455,0.44113141939049194
402,0.5387210049722614,0.24630629836962717,0.24723880577631546,0.328,0.08013878101977338,0.07097024845819001,0.42359456058073364,0.14143878886250083,0.24445166180543798,0.5556033244720572
403,0.6159262220341949,0.3869204844346713,0.2743950077643521,0.35200000000000004,0.07172085693249795,0.07516971801100193,0.28564403065579513,0.3400460215158396,0.3879667415295426,0.39920416737326114
404,0.5849231090958206,0.27504546452112033,0.305730743730052,0.29600000000000004,0.14334454936426733,0.11279787542365327,0.5496600920144346,0.08852973589756874,0.2717569453766255,0.3032649695487
405,0.6191284114969492,0.2874257375681226,0.15324110273425856,0.29600000000000004,0.03777423999360996,0.03503845285277585,0.35943926818646055,0.5108534404342022,0.28961092261687316,0.14567520983250748
406,0.5891593455566012,0.4050588809917929,0.16661656997806906,0.32,0.0544573632532943,0.042583354181182705,0.519253596622363,0.7504724093324691,0.4091820125658169,0.1392022698193311
407,0.5892776754023054,0.6320513540136623,0.5146588411411823,0.48000000000000004,0.3348027927403565,0.27853348480663553,0.5065322022031091,0.25501923719343067,0.6316519834911936,0.2955534046609319
408,0.5416911838096946,0.18901294599843313,0.12471264136184844,0.28800000000000003,0.025104205548896266,0.024707951121194522,0.2989724112325429,0.3544916077733393,0.18981898772378886,0.18185944699072687
409,0.6605091872753802,0.1931036446221571,0.06542026521421938,0.176,0.007248334813751348,0.006400710372816595,0.26414804371434486,0.7094725792348238,0.1954869031854909,0.152294722618879
410,0.5980002725618708,0.17614518152422579,0.11700125843893415,0.232,0.02910970176979127,0.0246803898839362,0.4130145459307917,0.3472652709865156,0.1768740814623359,0.3214168699807863
411,0.5219542981372948,0.3326809109421779,0.24272968169478515,0.35200000000000004,0.0827600274384966,0.07337065187867564,0.423534731709288,0.31804339900206036,0.333376411037461,0.510014145407972
412,0.6131647177429108,0.14272129487742183,0.12389092903243386,0.168,0.02624705958475349,0.025139672962435803,0.31940420540307335,0.21783838321785864,0.14236690225178478,0.4268907818330606
413,0.6083511267066274,0.21980786460778137,0.07163028673459153,0.16,0.012148749537963183,0.008894307840341141,0.42003181250809596,0.7678729983083101,0.22254362337698724,0.13598600142252748
414,0.6007692387899929,0.06618733243592004,0.00828461900530364,0.176,0.0,1.856639853107904e-05,0.04203602474379364,0.6006509923175813,0.06744579420723948,0.21960432230804272
415,0.621677321065817,0.0,0.0,0.024,0.00019052375817484382,0.0,0.07310149244424868,0.2278743802819363,0.0,0.3696584650129713
416,0.5603653355962784,0.1160537701943235,0.00372092384511101,0.07999999999999999,0.001397288908935875,0.001073508694953926,0.13375582343542802,1.0,0.11828000806648589,0.1885218990143484
417,0.5531914245563679,0.07470594814246362,0.017052597062237537,0.10400000000000001,0.002771629625971286,0.0029523969966692093,0.12918623064195567,0.5588545533091207,0.07592594835045843,0.24670507352716115
418,0.5548608463214689,0.29854352550706087,0.23849635356618498,0.256,0.09135370009663438,0.06749557862735005,0.5995045928275691,0.26209672069830914,0.29850803368235146,0.5083532870475034
419,0.5112273990629362,0.15425978124726444,0.1384101933501557,0.208,0.024275876310390954,0.02540804189316763,0.25774523187682363,0.202698242807136,0.1537170877197297,0.5962066047985669
420,0.6109847206193585,0.3897195139592958,0.2847482728156223,0.232,0.10793019192364418,0.07433617794865016,0.6818211418386768,0.3207925264131364,0.3905187330849317,0.17828677810590848
421,0.4990942080443509,0.317982239286552,0.22928588721399618,0.232,0.08790169349474834,0.08147787768796524,0.3868641104227202,0.3241514406349112,0.3187312267246397,0.4272315754071174
422,0.39177838823827293,0.8042129866484335,0.5175169814931385,0.568,0.33243192670684624,0.31205895151719254,0.3925206467619259,0.4330744550896364,0.8078482956120973,0.3848536272461669
423,0.3959794710076817,0.5898632046525859,0.5426753654981327,0.528,0.42393531679916036,0.3294981446505342,0.5791460039168046,0.17721601813949928,0.5872897302087122,0.35952244376862014
424,0.493400141925041,0.6716172394911611,0.5094969059533294,0.504,0.32838163686534605,0.2544535584292811,0.5798190498705726,0.30413466975300285,0.6724008513258022,0.46639154279651274
425,0.26952524225476615,0.49557574274825367,0.4301008270800408,0.784,0.2934977222922712,0.30229361697591617,0.31299424512417195,0.21399457993668702,0.4943537788945561,0.5099781877659267
426,0.6804419353912511,0.3169871576016976,0.2846989114731471,0.36800000000000005,0.09955443279592847,0.08291877784342087,0.48492143245224395,0.19589290697180872,0.3158602218782353,0.5426147268880718
427,0.487497023975746,0.3452258440952106,0.15215980905636983,0.328,0.03569046075597673,0.03326492669432175,0.35335900877647686,0.6685483917669992,0.3485620600325587,0.16108375747251164
428,0.4210191920011911,0.3035330257162935,0.09554085442312261,0.232,0.025401694035246617,0.023455427912457635,0.3427732789179163,0.8899819290295523,0.3072600922125403,0.10656920158609634
429,0.4560603971317222,0.38924103706092483,0.2055242251977989,0.42400000000000004,0.07554091996898266,0.07001502526990999,0.3833672720878456,0.5479362757004271,0.39220435627269845,0.17143807058108945
430,0.3738733670026272,0.24638944894109968,0.1947125941571381,0.35200000000000004,0.079107934978796,0.07471400794552831,0.36892970225918864,0.2664543609988107,0.2464342852451854,0.21550666245831013
431,0.3866749373701627,0.49861329970014157,0.3458720717792005,0.568,0.17401588763056156,0.15688026742183422,0.42288672793797577,0.36240872754065523,0.500187189760073,0.17339845304103962
432,0.5292677292346603,0.6107006729341089,0.3009413270861436,0.48800000000000004,0.14413528634131836,0.1245403228036227,0.45895244354772147,0.6483215935903957,0.6157520423232619,0.07992107109158178
433,0.47489509152969267,0.33931377298794985,0.19313145308048119,0.34400000000000003,0.07173826937112568,0.0703950622268079,0.3360390891666707,0.48196413550453177,0.3415641976468682,0.14711102985801322
434,0.49051578256427664,0.31629585064799104,0.12097336236686111,0.168,0.03416833053031519,0.026303199766863922,0.5016862355747762,0.7576386784422928,0.31975694104467506,0.06823116595763803
435,0.41612615590842494,0.6114610677668687,0.34330042520502585,0.608,0.18463759293801538,0.17206240524517447,0.3940728308384316,0.5346173031557231,0.6155439900555333,0.16728171329195674
436,0.343749184862327,0.5150372476162394,0.3922866115536412,0.5519999999999999,0.18652704050138236,0.17692476212784872,0.378764750773286,0.29848140562460246,0.515597680667415,0.11783876426547657
437,0.4043796819168336,0.5208237097472548,0.3464748435329694,0.704,0.17068439295787688,0.1680992682154272,0.3460033876453219,0.3938866520503381,0.522891757643591,0.22329142535339347
438,0.35704612276091907,0.605367180730221,0.3920556383313766,0.592,0.21659174502991585,0.2019178872616796,0.39536364287481196,0.41914433146059327,0.6080573398269238,0.16775858201361687
439,0.32290699689673497,0.5949343342158073,0.47620132818098626,0.568,0.3031454633904952,0.2583896713909203,0.48168477276214117,0.26613696507733975,0.5948301634711111,0.5673947084909265
440,0.3269787371612801,0.4568522135799401,0.4877382285923576,0.43200000000000005,0.37530539872886365,0.3652257772451212,0.36163938028106557,0.09595183796279483,0.45218947874911564,0.3845960329939093
441,0.38846793068738494,0.5519822111076975,0.38799283474170176,0.28800000000000003,0.2202947705933049,0.17409358288866514,0.5536965664202085,0.35520247969901153,0.5535652720613434,0.21542870326167457
442,0.3658368399748494,0.34006870182365045,0.2780825191492258,0.312,0.11210237546706553,0.11117734339087995,0.3353595325591533,0.2494228424334678,0.33981423068592825,0.36429624899183793
443,0.28687994687061125,0.17414481016107283,0.22507784935212866,0.168,0.09150272385900193,0.12780485807635633,0.09738801855716539,0.040317652053460384,0.17070043641600346,0.5744040786300566
444,0.29519714776104233,0.47946698130960663,0.2930118662631581,0.568,0.1552922695035069,0.15932602573824228,0.3118121714406694,0.45326675997587185,0.48208517218450186,0.14244263713370015
445,0.30239568759622226,0.36484201934393445,0.21526723811729587,0.28,0.09178378715764787,0.08940787940563807,0.3467129255386209,0.46233603258860334,0.3670571977754411,0.0939621739866516
446,0.2526150514139488,0.36017957941201073,0.22832856570924565,0.456,0.11422563592117627,0.12882499535211267,0.23747312950003552,0.4122796858252613,0.3619415212832302,0.12805017627239434
447,0.16522915364129764,0.09646436638427322,0.07522019288927707,0.144,0.011905058467893572,0.011570796938837963,0.26225659287049863,0.25876450035357335,0.09651776045823351,0.31124468760529683
448,0.2998309540200511,0.6032082362820356,0.3578493881458583,0.744,0.20564084721942974,0.21994794879330962,0.2811673447390106,0.4883401651089311,0.6067584773273662,0.1605009592608559
449,0.26532082202979634,0.6208381356413588,0.4149263581316486,0.728,0.30571394776426297,0.28508017440143985,0.3978971152904981,0.39591470700828046,0.623238402603573,0.23282028236822294
450,0.29632243758885657,0.6573992921241701,0.5392906879486711,0.528,0.3567446344483552,0.3304420755883824,0.4049099830951747,0.250166158280131,0.6568495120864938,0.27767732682016505
451,0.3005191412950713,0.5494693412028097,0.4706777045876235,0.632,0.2931142764058655,0.28335056297715855,0.3660218689157938,0.22182047203788313,0.5483273029284796,0.48312867675130056
452,0.5306478197242109,0.592038564412049,0.35030494872102985,0.464,0.15793606563072443,0.12055779070998962,0.5832998595857974,0.4894901827987578,0.5955484471609936,0.1105811500970956
453,0.49269184240528097,0.4583484338873711,0.2706555968404306,0.52,0.10876554243535227,0.09912982799966581,0.40570517437851494,0.47650990183089714,0.4611022241430801,0.1759529400371329
454,0.529762908977648,0.556515096049328,0.25608924392834964,0.4,0.08704010390927898,0.08164884185569452,0.3766451556258398,0.7002981250492641,0.5615277105639892,0.11220713784974115
455,0.38648159207267374,0.3434531821392386,0.17592471284832134,0.328,0.06633349594315105,0.06585369998788539,0.3252584277796706,0.5573340003223266,0.3462146695540015,0.18343187971823238
456,0.24063092126766394,0.7523824090099925,0.4565780424097221,0.816,0.31894448919028334,0.3257590217158361,0.3202289447069596,0.479778626563534,0.7565233802127159,0.2010278346893884
457,0.08468410365004397,0.5660796074803516,0.47701589226702534,0.456,0.3910290274135387,0.43772359964373725,0.24893969199863086,0.23225341448283732,0.5651760353277056,0.24007087094429297
458,0.3399089428985652,0.30475495485627757,0.32954854024863783,0.336,0.126184355605752,0.13693565020497164,0.26658436105952643,0.09896648275090425,0.3014909826677317,0.49236146114691837
459,0.18068295380917443,0.4243287677924753,0.4501352509815173,0.52,0.31896756122532427,0.34942171427580376,0.26473608100534374,0.1008709369455858,0.4201238951542876,0.5103850665831844
460,0.2406866204980137,0.5483229118950219,0.25260711212230186,0.624,0.12488516639743816,0.13835919493093513,0.2511467053445601,0.6974818996544248,0.5532591176012671,0.17939775407698666
461,0.4865858165729823,0.8738442920625474,0.3334786631222168,0.5439999999999999,0.16636521663579049,0.13767457207118808,0.5026602556043565,0.9551147645716429,0.8828684511093922,0.0
462,0.38832727355726837,0.4842507565681249,0.218113049914826,0.528,0.08577626071618981,0.08150097998831769,0.365732477624954,0.7016211335353153,0.4887426905469219,0.029644167411380817
463,0.0,0.4189879698449156,0.24659857225988685,0.944,0.14962998904826127,0.1872131536418915,0.16734392071116944,0.4734548217353809,0.42153572259386407,0.20621278387920688
464,0.28981438093263046,0.7683150468708269,0.35733700048437433,0.944,0.20638705044170763,0.216163973085348,0.29760251058816045,0.7256770868501465,0.7750673806420362,0.13979175590292542
465,0.674089135759555,0.4952388744319586,0.1822532075755951,0.512,0.04825270738498185,0.04082050302862146,0.44401312973920404,0.8892064044425536,0.5006270999583177,0.06131864175381707
466,0.47402484747138873,0.4609569268518876,0.17144670156428682,0.512,0.043042892087746115,0.04557267206258525,0.2679134083822786,0.8638544623450544,0.4659617572652489,0.053277417267837246
467,0.46213237346090275,0.6129135240203265,0.3005740808490847,0.5599999999999999,0.13811867566372843,0.11159033905202714,0.5224346476546395,0.6531518180096905,0.6180152331918302,0.03883799872539534
468,0.5924246563309471,0.23168073245860268,0.07683590665708583,0.232,0.013858860985189384,0.01186689066237381,0.3449505948556125,0.7732061144429241,0.23452347240966137,0.0772128940919885
469,0.5223998828091464,0.14898594228581244,0.0410940232875046,0.264,0.009228268562326144,0.009381556689149046,0.22257046610488362,0.7237446948056163,0.15107470348870644,0.09197693626700904
470,0.48814552429742586,0.28254343705803775,0.11809305200719254,0.30400000000000005,0.031181003549531013,0.026286220165686405,0.42198321300183816,0.6716313401843916,0.28545213646759104,0.07908215565380661
471,0.46470066997121695,0.5729160431495068,0.3713939109690474,0.688,0.18836975835486058,0.1733843884056234,0.4052228198010315,0.4164658890043492,0.575455873567214,0.21766826041236376
472,0.5581967207752395,0.4898710758249306,0.46907033878516047,0.464,0.3003049978381921,0.2396359304975099,0.5478517850501097,0.1552203554283672,0.4870409952879369,0.38825040730001303
473,0.5745326017208315,0.36157458909512397,0.3354692018476289,0.36000000000000004,0.14582873530375084,0.12451269027326634,0.470301765597527,0.17656741133035203,0.35989459046130506,0.43703048008509016
474,0.6251911840308148,0.48756709676469245,0.3865933988508176,0.536,0.1635432370788852,0.142344668816666,0.4542606483133683,0.2709853793382696,0.4876028068032089,0.5175154429104444
475,0.4791843262367902,0.28353618731772656,0.25586151998087064,0.30400000000000005,0.09459550630289368,0.07254003367239129,0.563180844700599,0.19421264061733134,0.28248472904412536,0.4521326363552769
476,0.5563144603818163,0.2637690193174679,0.27915413317503046,0.32,0.11783950259931084,0.10820789331160036,0.40066142112595526,0.11359386639782898,0.2612035705739571,0.4443720272731979
477,0.5236135780952528,0.4589755234627044,0.4001872441332835,0.42400000000000004,0.21004538700230116,0.19132126184652393,0.41579677412047744,0.21118120970537846,0.4577741882847607,0.38651075495926734
478,0.40597732976706224,0.28710631232815476,0.2939972242590294,0.34400000000000003,0.12921216828581045,0.11857526917320603,0.4027669059232759,0.12795081777371242,0.28471053141075425,0.5630645277016366
479,0.4519836454429439,0.27362042988992863,0.23848697269398056,0.43200000000000005,0.07424621481265259,0.07536907580491198,0.31038134179408505,0.21320316628142133,0.2729076049933471,0.6610040800766576
480,0.54192096414875,0.11805938937991758,0.12985141841186998,0.128,0.039523476574632684,0.03636953898801461,0.36744594455021085,0.12470932374837929,0.11673617692086932,0.6004107681825276
481,0.5404401797321344,0.6479751077976136,0.6311309231586275,0.656,0.4852804296448973,0.3406698491046503,0.695563445002459,0.14215272281857916,0.6438111047665127,0.5823589212174087
482,0.4910005093972155,0.7495857611227741,0.6219171873891275,0.648,0.4941574845797735,0.41883585129528744,0.49085676988102245,0.24287856942065478,0.7487223773594447,0.4666775187078438
483,0.4629910791896982,0.2991789458841718,0.2825433727030764,0.36000000000000004,0.12247086210017416,0.1329584884537464,0.26602351572045335,0.16923352382093637,0.29760513698555574,0.5491802105913131
484,0.5161972663297169,0.42569266111114246,0.4781169114050886,0.40800000000000003,0.3024509727792384,0.22476230108738302,0.6243368908574707,0.07107271142093396,0.4203356966327779,0.48331619691260697
485,0.5647970456087409,0.43179633602165846,0.42219572241616443,0.312,0.24140786812392315,0.16191619733329868,0.7391588028847007,0.14496564205606255,0.42896605557662126,0.3215322844137953
486,0.5112850968644588,0.347648500088218,0.2931844821087793,0.392,0.09958544235160462,0.10309660572393545,0.2998588144131916,0.23138900432625586,0.3470854439919979,0.5329639618084563
487,0.47242326836819537,0.05072193991464091,0.04335925983580917,0.07200000000000001,0.0068967722662706624,0.00832417728668398,0.13499123309140382,0.22592870283271593,0.05061911586460563,0.6222430146488632
488,0.5101811277542744,0.5146216175912851,0.45561406907595703,0.44,0.2959885401243552,0.2548971741852576,0.4715035021246119,0.2014554048387046,0.5130284353503263,0.3601754739759476
489,0.429003412465104,0.40468026020318915,0.3628803286373782,0.48800000000000004,0.15973382566919503,0.16761145020978468,0.29429945523988277,0.19509827346639042,0.40326187781674794,0.515807704799995
490,0.4800823509926889,0.2534278326570979,0.2558693734189198,0.192,0.06367987196921127,0.0503149087582528,0.5176894820433706,0.13791320103591287,0.2514608234505756,0.4017220588353301
491,0.45001451703601714,0.23747765364273907,0.25183879331767406,0.272,0.0940002428630147,0.1062373202093479,0.2342667187338099,0.11559947930439296,0.23515202098357424,0.5087626940754943
492,0.4190080511951747,0.6407300374678533,0.5960945965874729,0.592,0.4185630523496755,0.40513678282341326,0.36679065622857165,0.16980172532074178,0.6376863371306735,0.5985719808399793
493,0.44578695726566864,0.31413400343774567,0.2391331354309182,0.336,0.08536530397164306,0.08746268136867301,0.3056385956507711,0.2910682957396099,0.3144800936536883,0.5888751129543185
494,0.5817316357811754,0.4527094187490277,0.3568847890810876,0.4,0.14896896228180714,0.12214294560706279,0.5095941762923286,0.2740767139576241,0.45281029077276025,0.446930539933005
495,0.6134533862212724,0.49353389409551107,0.3735414412282162,0.48000000000000004,0.1686650487563059,0.1185985667936759,0.6745573395747981,0.301802500040243,0.49413993763468966,0.4251617110592678
496,0.5341518120483747,0.4745422868068132,0.39054227502171435,0.48800000000000004,0.19224178626734512,0.17869401807995228,0.39674814335372866,0.24694874960672653,0.47410282102917567,0.48988706859083486
497,0.5335331423319,0.3681149214938939,0.31431217638690995,0.384,0.13703869473793026,0.10299879656917071,0.5958617779084219,0.22414337119501027,0.3673850401452057,0.4061568670046195
498,0.524434122854552,0.22669870053777566,0.2248625683198036,0.336,0.07111318423913213,0.08186951707621506,0.2184990283967615,0.1491669958230677,0.22509850646374835,0.4164841905337445
499,0.5676456643631013,0.4250470932455317,0.478419484920812,0.44,0.2598771271114923,0.21149982478221674,0.5259493928871353,0.07002140719940253,0.4196535801445217,0.382109370710108
500,0.5612694074102044,0.33962988062788557,0.30185773291996293,0.336,0.1168208666628519,0.10048447393186229,0.4589811415758138,0.20131242712268627,0.33853735916536504,0.38910739161636065
501,0.6024554132608729,0.5162824685738452,0.4136028858750187,0.384,0.21010768618158768,0.16258969847204188,0.5748209434352523,0.2647238131665396,0.5161816662626163,0.2807567707515602
502,0.5961589759135754,0.4256666149243561,0.43068138990471816,0.456,0.2024678550640729,0.1435255641420167,0.6700632859650677,0.12628677900667518,0.4223039646049649,0.4296879684526873
503,0.6179745988280828,0.5737894936848503,0.44408966453685805,0.528,0.26289296393767075,0.1921954063690817,0.6404254717795868,0.28854632615138,0.5741817373628124,0.4800475345145414
504,0.6475601892942301,0.38913612345891435,0.29021897792058093,0.392,0.09888116759127527,0.0906171094126439,0.39905985410076306,0.3075957728937012,0.389751987673055,0.4859512655704846
505,0.6178875549569477,0.7086198636087572,0.5359162837927389,0.576,0.2918475204715288,0.2146104838936063,0.6355579169398202,0.3069559291824945,0.7094982542274397,0.4151350011873284
506,0.3943063423508536,0.4516423474980794,0.4055098188005175,0.384,0.2582098879810535,0.2226509408986211,0.468927473422194,0.19367625440177738,0.45004069249570755,0.3095421523442803
507,0.49743104921850534,0.5740002683659917,0.5573051934107844,0.512,0.3567542193595863,0.2730785352582649,0.5939257237365616,0.14534210298651962,0.5703835703883974,0.4411728711221178
508,0.5055872336991046,0.2985402107535815,0.27068762280186104,0.30400000000000005,0.1116327142854817,0.0956132805904438,0.4618891152430057,0.19117593855560022,0.29738609704274716,0.45091485233990647
509,0.4841965233686497,0.19840137008600459,0.21342216806477354,0.28800000000000003,0.03490528053920962,0.0454076126918903,0.13382626055338553,0.11481827170910563,0.1963481833635597,0.5601680150630818
510,0.7262059397580457,0.6802915776686494,0.5042973963084569,0.392,0.2618701617950349,0.20010737873972276,0.5917959348977193,0.3209619225347271,0.6814543506158848,0.25102125446566304
511,0.4953058678735839,0.4591960507009193,0.3855207746062752,0.44,0.20022173266033402,0.19381213391635682,0.36201829363764526,0.23435864474180335,0.4585114438472073,0.3802212422395066
512,0.5452208039175198,0.4074359058039373,0.2857653244925075,0.36800000000000005,0.12097552608160776,0.0904968849335636,0.5970521553609562,0.34882169720297573,0.40863130888194354,0.3532801782368713
513,0.44224679818269597,0.6169689741925257,0.611795492190949,0.592,0.44350628537751946,0.4496865832227617,0.32758480540169155,0.1321921544180188,0.6125758715209886,0.5011640504809388
514,0.5315547893683888,0.27625109443086493,0.2299461379878901,0.29600000000000004,0.07375590316449558,0.061671319009202454,0.4718724240916795,0.23842907046345152,0.2759076623325678,0.45144575905030093
515,0.5029761817440735,0.18068637555228614,0.22312755350638386,0.28,0.08499818543149014,0.07662796522716472,0.40972660635278313,0.057531388499620695,0.17758254626822684,0.5674013404567052
516,0.6815221163080843,0.5293560281476055,0.37071070249091176,0.34400000000000003,0.1684785175421208,0.11939372091969,0.665722952165805,0.3568375486148091,0.5309160840626035,0.2919070615159674
517,0.6603385766762505,0.49420449258661503,0.40201221432466366,0.35200000000000004,0.18246335930670016,0.1420173925152017,0.5661350602053015,0.25451763044822073,0.4939044595932738,0.3017082000275648
518,0.6224181387417612,0.6203522385220441,0.6004808730277894,0.5519999999999999,0.358490617684266,0.24732434285434385,0.7125394779997045,0.1462868294551043,0.6165130425385532,0.3947334078784531
519,0.4373478613959497,0.45631385392832724,0.3255139537738045,0.568,0.1312911224025994,0.14957849364496575,0.23122392261013047,0.34029958250376013,0.4574850904904777,0.6304380635307536
520,0.6138919994398585,0.5961390881567022,0.5037418327040273,0.504,0.273366793530952,0.18561015423323998,0.7270522856137791,0.23047690999155712,0.5951389941848547,0.39897329397152714
521,0.5699000165382527,0.4627595871374499,0.3212968617793752,0.336,0.12349421238296379,0.09608531496338218,0.5572336705568397,0.3592838503776884,0.4642087640961775,0.2852970795463185
522,0.5412920451196216,0.3810499600395497,0.40672484443246704,0.312,0.2388843785161888,0.17211190411953106,0.6551474153514665,0.09999240966197742,0.37717596110093365,0.4144785318287131
523,0.5739849883267992,0.35597058338192966,0.3189562908841738,0.34400000000000003,0.14908656053931063,0.11706103086411347,0.552794010284847,0.19636824868057667,0.3547316889303408,0.46015860073654724
524,0.5818514132422451,0.631538143497833,0.5689358351708221,0.712,0.3614606361061774,0.34603357434081466,0.37568231067174696,0.18973061390507862,0.6292271767533449,0.6706692531028516
525,0.623117379849926,0.552564903759155,0.4851978481050494,0.5599999999999999,0.22264978379255104,0.19898884616517282,0.4337213138508157,0.20628360492879028,0.5509980836182032,0.5605411650121453
526,0.6868407042291552,0.7364890195288285,0.598801641028625,0.6,0.3509899129578006,0.2930472988981463,0.5033745425541316,0.2566620524450518,0.7360544946654777,0.5536897581709251
527,0.6201512124338965,0.5030733788300578,0.4319203492127176,0.448,0.2069877875517202,0.17846181084420237,0.46648229059449153,0.22054376842058587,0.5019947854225701,0.3888902257900677
528,0.47650791029259365,0.5560183148315234,0.3973759509092985,0.656,0.22387173474556304,0.2268828169929227,0.32460406331493963,0.3435139523458023,0.557418544115307,0.6870710413094154
529,0.6823332897892443,0.7721068191845769,0.6742398598532097,0.648,0.47376501069113874,0.35122914633639374,0.6321670356734819,0.2088870240422671,0.7700497567010549,0.4985316937454901
530,0.6488658149834333,0.4854009840607101,0.39415789995927425,0.392,0.16150847218895129,0.13282827862116997,0.5081904866987315,0.25559042286751965,0.485130194102366,0.37742245222657766
531,0.5707975033165537,0.5460017745252955,0.4856552798811361,0.5439999999999999,0.29413956277555814,0.2533218919735812,0.4713812352147603,0.19838562232489676,0.5442316300915084,0.44005881476885367
532,0.6956942444448307,0.6333684832964104,0.48839360825978984,0.528,0.2531562535050883,0.21701189914579724,0.47437217811709165,0.2921334303102118,0.6338596276351033,0.4361282035369831
533,0.7777485203452797,0.5787657518293652,0.37015333721417787,0.312,0.1311330885947436,0.12439121871033657,0.3744335895999731,0.42678939403657146,0.58146371664978,0.27224928615165433
534,0.7229765238385485,0.5260715050816551,0.3436793018334491,0.392,0.12545768215607064,0.09538698456185628,0.5812831337188196,0.4071604553737991,0.5283303258194375,0.3980015589487149
535,0.6643274946903238,0.4119254102095985,0.3813525429725044,0.36800000000000005,0.14801051344101093,0.12273934325565883,0.4984470665917575,0.1765366105431071,0.4100428397983381,0.3918392284118478
536,0.2370424112795947,0.8065085723771718,0.6077403339581222,1.0,0.5599181129801697,0.5507795623828103,0.3539319468321067,0.311315024688392,0.8075835550937364,0.3138151221939111
537,0.3431828752618614,0.6339473232323954,0.35264586567359035,0.728,0.1997789941918321,0.1943779378385901,0.3576465942269891,0.5447227879124752,0.6382550566537614,0.2373882276330468
538,0.3869691016102478,0.5763535524249852,0.3588409537659795,0.5439999999999999,0.20813184991734016,0.1892681375334195,0.41717842652448567,0.4477678021051674,0.5793083554030062,0.14434985282701351
539,0.20593565804522707,0.6718497197950316,0.6712412207223604,1.0,0.5644143838809641,0.8825722923474588,0.034346099363652405,0.12682617880667557,0.6668630188282115,1.0
540,0.06458685195002267,0.472174501878888,0.5380308227530421,0.728,0.2601171909731514,0.43439796904713057,0.0,0.061142486696791676,0.4658758672243486,0.9446274117987588
541,0.3624842498187858,0.8593130866794405,0.807265660742574,0.912,0.8224715463291348,0.7241471045554282,0.45592473479489803,0.1617328766439181,0.854931618880661,0.72329597979717
542,0.4021171908791329,0.7941951322029097,0.5196575928633522,0.704,0.39837278772708234,0.2853156736568094,0.6698247432613664,0.4191789537851264,0.7975518573897777,0.6200770427081345
543,0.5374360645910198,0.9931923484483348,0.5659440614789203,0.624,0.3345677173282852,0.29782293066742527,0.44104122973930504,0.5465248019252393,0.9995318435162532,0.5035204191276819
544,0.23106879599409014,0.7115440085921777,0.7260775875497653,0.968,0.7583590343339349,0.6943596904091528,0.418756899196438,0.1138994836100099,0.705645541141163,0.9308358964675827
545,0.6330742900837466,0.8914391126616618,0.7700050879162217,0.752,0.6601037791471562,0.4951414304985298,0.6215515133207503,0.21591522873362634,0.8893652958951417,0.6188385459405331
546,0.3888893665395011,0.7539364988093648,0.6407551102730772,0.776,0.506350105764984,0.43435061711959916,0.47917365847029103,0.22675910617933848,0.7525454954106032,0.6177568406707213
547,0.4604546625018141,0.6558838804973985,0.6356001481483232,0.856,0.44247990114907315,0.4837875116548337,0.26720438099625277,0.14503558869656996,0.6517951930153273,0.7369338421819935
548,0.3673143425337574,0.36357322960653005,0.3184716864115921,0.464,0.15750089942531548,0.1561964032774171,0.3394576570957065,0.2092353225728365,0.3625691750366399,0.5448675419427638
549,0.27500070536608223,0.4850481101279499,0.5262955071057773,0.632,0.4203260918451987,0.3473690045141599,0.5150867333080733,0.08607284425158179,0.4797316414761956,0.7391325368961266
550,0.3181565221813535,0.6312019412701592,0.6921413238837487,0.712,0.5864114467057094,0.5750441990449726,0.35675547535173724,0.0755538237938258,0.6239481450743178,0.49027856392588365
551,0.3073045545425165,0.3926521241674602,0.3653588871501517,0.24000000000000002,0.22748203773522369,0.17010051825273273,0.6129649323197701,0.17407921109443136,0.39078805308584313,0.24203389214311488
552,0.342451804029947,0.484752654185868,0.4441402030316036,0.456,0.21202144414813284,0.26670870074778147,0.16481800698117932,0.18114238051382292,0.4827067210537719,0.4745610904998834
553,0.35796548062792277,0.5122057911780374,0.49231168632679245,0.44,0.3613091372390245,0.3697646268112726,0.31914112059504296,0.1525228915074165,0.509174494408347,0.3729887842436086
554,0.27285241364284996,0.4760516852201214,0.5607712593007681,0.52,0.4551866778335299,0.41491127636606784,0.4208926863040169,0.04413637667057879,0.46886880344103743,0.504996441792646
555,0.3035206372422138,0.3122810945432416,0.3277937589786935,0.24000000000000002,0.18027068877935257,0.16719228252831347,0.39800932035820435,0.11330957005063313,0.3093453350607477,0.3782892643821071
556,0.38042762273773445,0.5977477237000528,0.6455537379268182,0.624,0.4510285475520288,0.4735739792930332,0.2991103573205539,0.08468635586725659,0.5913083651791747,0.45295576587274866
557,0.40874285601475024,0.6753678631689858,0.524435869088685,0.624,0.31397645497078264,0.3617504866759548,0.22699691295007918,0.28778882826042607,0.6757726079932952,0.4682151607768177
558,0.29397148753753977,0.5294813544260224,0.46833516475929204,0.504,0.3252842025961783,0.3188180322731117,0.35478925430814423,0.2019005801719045,0.5278575891818068,0.5120155276761755
559,0.2199243232069935,0.26069411830415856,0.2820593439710288,0.48000000000000004,0.16371693003868756,0.141884731178975,0.4582861817102669,0.10315433209909897,0.2579044982702335,0.7646982221902536
560,0.4167202862977285,0.6772236494094547,0.4827299190474382,0.44,0.3216068612708013,0.3000847237039277,0.3976838542736659,0.3492174706793868,0.6789581983555755,0.36587637478177126
561,0.2925700965521897,0.5297457812832964,0.4585954954149509,0.49600000000000005,0.29096667841554397,0.28426779545179054,0.35689719182039914,0.21522051398896724,0.5284753396725166,0.47026990010576253
562,0.20802619198246164,0.4440813853938135,0.38810179619000706,0.312,0.28220961116172677,0.2636912033760062,0.39554322846123224,0.2099097436901518,0.44288777469157714,0.31180480605870203
563,0.24871084454081693,0.2616139798761079,0.26741605949167657,0.41600000000000004,0.12279062209054872,0.11775203177300196,0.36431075597508344,0.1310396001562576,0.25945294517579087,0.5879312155730092
564,0.3270009310678318,0.4381377977181453,0.4697174577800387,0.384,0.3383280500147189,0.3595485544802,0.28855066240077365,0.09460731575435988,0.43358648930388943,0.466706209573157
565,0.21549498992823757,0.4390315115022656,0.40161040183535196,0.504,0.298693802298419,0.351684188193168,0.2112335461098387,0.18284801237323622,0.43720227514328525,0.6674953512793705
566,0.47832328855206663,0.6500333676541391,0.6090807320417956,0.728,0.4654088414719307,0.38466276559224155,0.5157143871762084,0.16534476730030023,0.6467820654736549,0.5726993338031899
567,0.47832328855206663,0.6500333676541391,0.6090807320417956,0.728,0.4654088414719307,0.38466276559224155,0.5157143871762084,0.16534476730030023,0.6467820654736549,0.5726993338031899
568,0.404593832462507,0.30355615101657585,0.17981885016239868,0.256,0.05908349374309661,0.04448266696277401,0.5591861188572103,0.446364481796115,0.3053914554631208,0.565976432043559
569,0.2927560861480637,0.13503958800145094,0.08947359461544933,0.07200000000000001,0.018299933011870544,0.020619151378803924,0.20340372592394906,0.3343253857918016,0.13560999534022394,0.517609924032065
570,0.3249855152203015,0.20999333264280298,0.20701691103451042,0.216,0.07092925609191386,0.08862321335454917,0.16437493449909646,0.15383655634375715,0.20856164201555927,0.5261626165703309
571,0.29885071876461555,0.36549392852243623,0.37087680166863995,0.29600000000000004,0.20542254684245123,0.2108024552372739,0.3138754809150237,0.12751352350540313,0.36256865300544644,0.42701761558027973
572,0.28719711148627536,0.33176796768165917,0.41175291661722346,0.528,0.23338954174591367,0.2833732428577648,0.18902073067255398,0.02975421322531624,0.3258381769806179,0.6486733901874533
573,0.3523481415371911,0.5318803140644534,0.5364662250944026,0.5519999999999999,0.39542560458504517,0.35442743401637694,0.43571940446506785,0.12449057964382715,0.5277376941322601,0.48401546932146655
574,0.31210202399781994,0.532372313525561,0.5983749903173812,0.504,0.5227564273145208,0.4283791508063164,0.5251909528880518,0.06559566847772913,0.5256250491284319,0.46900195014765667
575,0.3448716341523631,0.21102727855096812,0.24441924833312467,0.216,0.10481457305320253,0.10125815826832688,0.35574519558518547,0.07868989540376725,0.20809885148710006,0.5064348021337692
576,0.3154715682881456,0.5082512595903745,0.5850517733623211,0.536,0.5192499863257126,0.45090310185640736,0.46738172032312386,0.054267078513372646,0.5011972467341329,0.5190183103093219
577,0.420448955942211,0.559443218721168,0.5123273150257932,0.6799999999999999,0.32801190797029844,0.31031072475183086,0.38555529546036604,0.18037101665178523,0.5570900401878857,0.6216796289394318
578,0.2417963285463819,0.2786429723966185,0.2980831125046494,0.208,0.1614473928861578,0.19899818184957918,0.17759079937265487,0.10677787223530921,0.27579841250415865,0.5091090046837753
579,0.2843188324337266,0.39356413825033953,0.39524030646371494,0.232,0.26811954382876607,0.2288493949624116,0.47914582009244533,0.13171423392660153,0.3905759001642818,0.3929006225303586
580,0.29901243562917046,0.4196067750124963,0.4362697085130679,0.536,0.2697845346532414,0.278605067785549,0.31042963680623237,0.11181563103617442,0.4158166404020899,0.5600153711757337
581,0.36560197818970297,0.3138370128803202,0.3362882709307624,0.328,0.18096887638717704,0.16165627951554773,0.43174460693983685,0.10274513224226811,0.3106025808573279,0.5317728547632784
582,0.31078510760873634,0.450333700558715,0.38118186126229164,0.40800000000000003,0.19964196474521279,0.22368503235991224,0.24582176866784178,0.22932111036931146,0.4495561058069244,0.38387758503304437
583,0.4618163376272507,0.48334010096044433,0.4372452694400992,0.49600000000000005,0.24785154458208736,0.20722169249812572,0.4984652505673801,0.1887596707100111,0.48150638349368846,0.5584149660964512
584,0.3157599774124952,0.4338728964190758,0.42709820228973094,0.5439999999999999,0.282126098363005,0.2511619375684747,0.43960946432641723,0.14113114249348413,0.4309166530661529,0.5372139616340385
585,0.3864879734022558,0.4232146670951902,0.38487849206190644,0.41600000000000004,0.20601052260187608,0.22631489360594143,0.2607233042415945,0.18650719460282872,0.42153343554624156,0.3844570813953544
586,0.6419693038472011,0.777176964996298,0.3411060751039903,0.064,0.191259520329735,0.18706857868174837,0.3528302031005438,0.780596331130951,0.7843797850537836,0.4467245167069651
587,0.43350285179340864,0.10948422568029237,0.11174882240389002,0.168,0.017866612270984322,0.021601423571634276,0.16386537307186844,0.1563969497181097,0.10859900663779154,0.6970788333426405
588,0.4577843594258536,0.5371871660941785,0.5312725141085207,0.504,0.28562645269199977,0.27675028724541884,0.363872079091519,0.1354109616324869,0.5334198813795886,0.43878208789912965
589,0.3259962575457517,0.33222066118697946,0.35671139845069205,0.264,0.2106257864386075,0.21824072416489823,0.3062911309534093,0.1002254512482692,0.3287621078210897,0.35190184093080734
590,0.6419693038472011,0.777176964996298,0.3411060751039903,0.064,0.191259520329735,0.18706857868174837,0.3528302031005438,0.780596331130951,0.7843797850537836,0.4467245167069651
591,0.43350285179340864,0.10948422568029237,0.11174882240389002,0.168,0.017866612270984322,0.021601423571634276,0.16386537307186844,0.1563969497181097,0.10859900663779154,0.6970788333426405
592,0.3259962575457517,0.33222066118697946,0.35671139845069205,0.264,0.2106257864386075,0.21824072416489823,0.3062911309534093,0.1002254512482692,0.3287621078210897,0.35190184093080734
593,0.32443666802764504,0.7430185524229244,0.631262408739061,0.832,0.496529850731097,0.6122093753141675,0.1798829300730007,0.226994191288156,0.7416553846605476,0.7520166689485305
594,0.27426090918753043,0.45794600349337566,0.4558882529366137,0.64,0.3511726086179171,0.3264342382188342,0.4016260127669682,0.134065254441329,0.4546237278852834,0.6884661746265731
595,0.5167471065594335,0.523039983058633,0.429627392862447,0.4,0.2501285465085041,0.21313474544486008,0.48002786325636115,0.24836802782382028,0.5225799706627442,0.3703635596015018
596,0.2527465199030682,0.49753520874936474,0.4893920145631311,0.52,0.37178701552076515,0.3823231603854457,0.31531785099852805,0.13962754122073673,0.49415640127847515,0.4654058811570245
597,0.3811542350551024,0.5117146973853187,0.48902172557713397,0.696,0.29386988456948715,0.3208813129643043,0.26693244256009374,0.15586501103713124,0.5087945021386638,0.6215542999353343
598,0.49382247966941806,0.6294875171062352,0.5106335111469383,0.48000000000000004,0.33621797262087244,0.2667445800851185,0.55512212391107,0.2574917331484404,0.6291532066476265,0.3268428569465788
599,0.4674985362545515,0.3285695734904598,0.3616770757686296,0.41600000000000004,0.158775239248463,0.14962953336265258,0.38255889617730576,0.08800979444154067,0.3247745808157194,0.44051926413541054
600,0.4643363344161592,0.4749414875934528,0.4269444010015597,0.36800000000000005,0.2513305402026914,0.19381931497593005,0.581394022690982,0.19263138517251188,0.4732378325218276,0.31851788894755584
601,0.4171856148349583,0.35035939737488164,0.4075057468020281,0.456,0.20612607028500485,0.1547805528022308,0.6065476260226437,0.05901914285423959,0.3453521391500336,0.5696401938215842
602,0.442247227908129,0.516654076485958,0.5007168693158154,0.47200000000000003,0.3026937114583947,0.2539054627736378,0.4973862162105964,0.14763067943381813,0.5134364826022714,0.4419873644511746
603,0.3567112622853047,0.5270727298686535,0.5970300200041718,0.616,0.45638421728923534,0.35643291318803005,0.5746052517649833,0.061767890182503726,0.5201885921776472,0.5472002293492972
604,0.26124875797382285,0.3514108855460837,0.3322932287320177,0.208,0.15468288696196436,0.14053913670849658,0.41430790113016736,0.16636034649178089,0.34954402391540706,0.2977484606636765
605,0.27383548610160047,0.4732628486535202,0.3619132560816498,0.43200000000000005,0.20688737622687878,0.2236060403482896,0.27314500486990057,0.2943655298625968,0.4737270394125044,0.35772324691782315
606,0.30097793249588467,0.513596524096158,0.49712426571429424,0.464,0.32221195422282345,0.31830581137227243,0.3480420864289757,0.14842461840247334,0.5104222682272778,0.3740749079859333
607,0.24022987635900883,0.11933508344040183,0.16380169188549654,0.12,0.06788213913326278,0.05230590822574333,0.5443760113539711,0.039273385813697104,0.1165843136915446,0.5805917811686285
608,0.24671666800888692,0.2586837712886737,0.15453115714361876,0.232,0.05948157607719108,0.07449204033171358,0.16156200876816895,0.4294468145224499,0.2602237280100742,0.5016057822541783
609,0.3014590620969858,0.5299065439905161,0.44083294333836254,0.256,0.1967263520583414,0.2368301550806571,0.1943698898317816,0.24039712052761142,0.5292556313674593,0.08093264829406913
610,0.30105413302851936,0.3981485166837845,0.44184744312873436,0.47200000000000003,0.3020199317769179,0.28931795365326124,0.3740824261873954,0.07885203576091893,0.39337729010473593,0.38453619351125745
611,0.2923713793366295,0.5611682852695453,0.5435353911720242,0.584,0.4052148373308879,0.4840346353030435,0.20165838671387804,0.14700466554129243,0.5576839722776689,0.4826711596011738
612,0.22191783073669546,0.6515907433780039,0.7012965612100557,0.6639999999999999,0.608266914577802,0.7541986168945545,0.17625840442007845,0.08517592103251348,0.6446699984083497,0.3826147969601177
613,0.2848818990558931,0.6250166601263721,0.5618377315977294,0.6719999999999999,0.45815254465048805,0.34231680550607396,0.6230922063086106,0.1911334739738635,0.622774043179459,0.5778943934997749
614,0.2485644303488289,0.26107471878136534,0.2481197413269272,0.176,0.07637947774445063,0.10027393483105716,0.13387936797196853,0.16792848297198681,0.25964360532255065,0.29819531695115803
615,0.3635280125916599,0.8458374803382716,0.670175588572114,0.704,0.5255611831931248,0.7007702056032048,0.1281750850062926,0.2751912403547786,0.8459116674702414,0.4825186058303449
616,0.27094591294446857,0.46183615799637867,0.3130392348339134,0.264,0.17761333306875857,0.19651600627158,0.2545479167204918,0.37612357371132565,0.4635054712509542,0.24899043967483636
617,0.32606550350254493,0.5550737444324301,0.49106858859659175,0.36000000000000004,0.34149767203942605,0.3076558202769747,0.4300263939374439,0.2016133480966128,0.5533686857505624,0.26689339492712444
618,0.3614430341005713,0.40060948593066037,0.44235207970831814,0.28,0.25220598770341973,0.30119543871284854,0.20073296143172803,0.08126874820340635,0.3959045791351361,0.277553792868471
619,0.336142059546496,0.5335148322741174,0.5495430667872322,0.52,0.3780877627197396,0.40773871570431625,0.2774239295864295,0.11264392064834239,0.5288935885133612,0.47310055992275957
620,0.3075564193618564,0.6199473046738189,0.5670939070213155,0.256,0.5227149100752688,0.5980135713328549,0.23331770802487173,0.17937796550686236,0.6173285964664948,0.6901827218549251
621,0.5050765541772658,0.3729042447888331,0.3479461882275271,0.37600000000000006,0.1266619970839261,0.0992238239253691,0.5510534775556204,0.1730880071920331,0.37109875591260155,0.4509564655948439
622,0.5556563221817424,0.25562714072593373,0.18929259854149794,0.096,0.05161620661102289,0.041576403858919336,0.48972520266786845,0.3025250732631807,0.25607416271192673,0.35566780598848463
623,0.5850593982928641,0.8921102776261024,0.8000843146829959,0.32,0.687787672877509,0.6165452631121084,0.4382146778651247,0.19044784474069854,0.8889469670272176,0.5134266630302301
624,0.449773845606129,0.6241731640261524,0.5897723611370796,0.584,0.4343103380775559,0.37539307911160263,0.47087245625520724,0.16061126210176968,0.6208647680498323,0.5132463025216518
625,0.44834457540978867,0.602615292455925,0.5178068794922203,0.6799999999999999,0.3702456364363853,0.31702757948048504,0.47890772345493704,0.2197188651980726,0.6013059061803293,0.6834173301389782
626,0.4867323598895149,0.4296457085631673,0.4174506942348629,0.42400000000000004,0.26442515589607135,0.21351816718203548,0.5341462976292115,0.14857360895160265,0.42693246647147565,0.4358865117631364
627,0.5107272135743642,0.6954029742431973,0.6403236025250938,0.648,0.4134779131230397,0.32530852588732073,0.565922793123022,0.17559067383093274,0.6923474902288504,0.4333147634746939
628,0.5050765541772658,0.3729042447888331,0.3479461882275271,0.37600000000000006,0.1266619970839261,0.0992238239253691,0.5510534775556204,0.1730880071920331,0.37109875591260155,0.4509564655948439
629,0.5681376128530254,0.3864726828460985,0.3334723696289566,0.35200000000000004,0.1237286287192626,0.10054745126119638,0.5141209523400001,0.2178561741735,0.38558413921467993,0.32232644928084475
630,0.5556563221817424,0.25562714072593373,0.18929259854149794,0.096,0.05161620661102289,0.041576403858919336,0.48972520266786845,0.3025250732631807,0.25607416271192673,0.35566780598848463
631,0.449773845606129,0.6241731640261524,0.5897723611370796,0.584,0.4343103380775559,0.37539307911160263,0.47087245625520724,0.16061126210176968,0.6208647680498323,0.5132463025216518
632,0.44834457540978867,0.602615292455925,0.5178068794922203,0.6799999999999999,0.3702456364363853,0.31702757948048504,0.47890772345493704,0.2197188651980726,0.6013059061803293,0.6834173301389782
633,0.4867323598895149,0.4296457085631673,0.4174506942348629,0.42400000000000004,0.26442515589607135,0.21351816718203548,0.5341462976292115,0.14857360895160265,0.42693246647147565,0.4358865117631364
634,0.5107272135743642,0.6954029742431973,0.6403236025250938,0.648,0.4134779131230397,0.32530852588732073,0.565922793123022,0.17559067383093274,0.6923474902288504,0.4333147634746939
635,0.4483330462685372,0.5167885939015382,0.48342398631532013,0.47200000000000003,0.33348709697343826,0.29952465421644475,0.4326874427495616,0.16829619458141087,0.5142361654834099,0.3742247381219866
